59
58
53
52
50
50
48
45
45
44
46
45
42
39
38
40
41
40
44
57
72
91
95
101
100
99
99
99
99
99
99
96
96
96
92
86
83
79
77
74
72
75
74
71
64
63
61
61
60
60
54
52
54
51
50
50
49
44
42
43
43
39
38
35
36
41
53
68
85
93
98
99
101
99
99
99
99
99
99
96
93
89
89
87
81
77
73
73
73
76
71
68
68
67
65
57
57
56
52
52
51
47
48
49
48
48
46
43
42
39
39
44
51
66
83
94
97
98
96
96
96
96
96
96
91
90
88
82
78
77
75
75
73
69
72
68
69
62
60
60
59
58
51
47
47
50
48
48
44
41
41
39
44
41
42
41
41
57
69
82
96
98
100
94
94
94
94
94
94
90
90
88
88
84
81
80
74
70
69
68
67
66
65
65
60
57
54
54
51
49
47
45
43
39
40
39
40
36
34
35
36
37
37
45
59
71
84
93
100
100
97
97
97
97
97
97
88
87
85
82
85
83
78
72
71
71
63
61
60
58
57
55
55
50
47
47
47
44
40
40
37
41
37
37
36
33
34
33
31
25
31
37
55
71
81
90
92
89
89
89
89
89
89
88
85
83
78
79
72
70
67
65
63
60
60
60
60
58
56
55
47
47
45
37
38
41
39
35
36
35
32
30
30
32
31
32
33
37
50
67
79
86
92
91
91
91
91
91
91
87
84
84
77
73
71
68
63
60
56
59
61
60
58
56
55
53
48
45
43
40
39
38
35
33
34
31
29
28
28
29
26
26
26
28
27
33
47
63
81
88
90
93
89
89
89
89
89
89
85
82
79
78
74
71
63
60
60
58
60
62
61
58
55
54
52
51
45
46
41
36
38
38
35
36
35
35
37
37
32
29
29
29
29
32
40
57
74
87
91
90
89
87
87
87
87
87
87
86
81
74
69
68
68
63
65
64
65
61
56
57
57
54
51
50
46
45
45
43
43
40
38
39
37
36
38
39
33
36
32
34
43
55
67
82
90
89
89
89
89
89
89
87
82
80
79
77
72
67
65
63
63
65
63
62
60
62
58
56
55
53
47
45
45
41
40
39
41
40
35
33
30
31
33
30
31
30
35
46
63
77
85
92
94
94
94
94
94
94
94
89
88
85
79
71
71
70
68
70
69
70
68
66
63
60
54
53
50
46
45
47
42
41
41
39
43
40
39
36
34
30
33
34
30
30
37
56
75
92
96
99
99
99
99
99
99
97
88
86
84
82
81
79
73
74
72
70
69
65
63
64
62
61
60
58
55
54
49
49
48
42
39
44
43
42
42
44
46
54
64
80
93
95
96
92
92
92
92
92
92
90
87
83
80
77
73
72
69
65
67
65
64
61
60
60
58
51
51
52
52
46
43
43
43
41
41
38
38
38
39
45
52
65
78
86
94
96
97
95
95
95
95
95
95
91
91
88
84
80
76
76
71
69
72
69
68
65
61
58
55
52
49
49
44
43
42
46
46
43
43
40
41
40
36
35
39
45
64
80
91
98
96
98
97
97
97
97
97
97
93
91
90
90
87
82
75
70
69
67
68
69
67
63
66
64
58
54
54
52
51
46
46
45
44
41
38
36
39
38
35
34
36
41
50
65
83
96
98
100
102
97
97
97
97
97
97
95
91
88
85
81
79
74
72
72
71
68
69
69
65
61
60
59
56
54
53
50
44
45
46
48
45
37
38
37
39
35
32
39
45
62
81
91
98
99
94
94
94
94
94
94
93
87
85
81
79
79
78
77
73
70
68
70
67
63
60
59
55
49
46
47
46
44
44
44
42
40
41
40
38
36
37
35
42
55
71
86
90
99
95
95
95
95
95
95
93
92
87
85
86
78
72
70
63
63
65
68
68
67
66
61
54
53
50
56
53
45
39
38
37
33
35
34
31
31
33
34
33
34
43
50
69
88
98
97
97
97
97
97
97
95
93
92
91
86
85
85
80
76
69
68
68
67
69
68
62
57
52
49
48
49
50
47
43
43
38
38
43
40
41
38
32
36
33
31
31
41
56
75
90
95
96
91
91
91
91
91
91
86
84
87
86
81
78
74
75
72
71
73
70
65
59
58
60
57
54
51
49
49
45
43
44
43
43
42
36
34
36
33
34
32
42
59
73
90
97
97
97
97
97
97
97
94
93
87
82
79
77
75
72
68
65
66
65
68
67
60
59
60
56
51
53
48
44
43
39
40
39
38
37
36
34
33
33
32
34
41
57
74
88
95
100
99
99
99
99
99
99
92
90
87
81
80
76
73
71
67
71
69
63
62
61
61
60
59
54
50
46
48
46
42
42
40
42
41
39
38
38
38
37
39
38
49
68
84
96
97
97
92
92
92
92
92
92
90
89
88
87
80
77
72
71
70
70
72
70
63
60
60
59
55
53
52
54
51
47
43
43
40
38
39
37
38
35
35
32
36
41
59
75
87
97
99
94
94
94
94
94
94
92
91
90
82
76
75
73
73
72
67
63
64
61
58
58
56
55
51
54
49
48
45
43
46
43
39
36
35
36
34
32
33
31
31
38
47
67
80
88
90
90
91
91
87
87
87
87
87
87
87
85
78
75
71
69
70
68
68
64
62
60
55
55
51
50
44
40
42
41
44
42
40
37
35
33
35
34
36
36
33
27
28
32
42
62
79
86
93
91
91
90
90
90
90
90
90
85
79
78
76
74
69
69
64
65
64
63
63
59
59
58
53
53
49
47
45
42
43
39
37
38
34
35
34
35
32
33
34
36
35
28
30
38
55
74
90
91
93
91
91
91
91
91
91
89
86
83
78
77
69
69
65
61
63
66
67
62
60
60
60
50
47
45
46
44
42
38
41
41
38
37
35
35
27
27
27
29
29
25
28
39
57
74
86
93
94
92
92
92
92
92
92
87
85
84
79
81
75
71
66
63
63
63
59
53
55
54
54
52
52
48
47
42
37
38
39
39
39
37
32
29
29
28
27
29
29
26
27
38
58
73
87
94
97
95
95
95
95
95
95
89
82
82
82
78
72
70
69
68
65
66
67
66
62
61
57
55
52
50
46
46
44
45
45
43
39
38
34
36
39
39
38
33
33
32
40
49
62
84
96
96
100
95
95
95
95
95
95
93
89
86
82
77
76
71
63
64
69
70
71
68
68
62
60
56
54
54
52
48
45
46
41
41
42
40
38
38
39
37
34
42
55
69
86
92
95
94
94
90
90
90
90
90
90
88
84
80
77
75
71
67
66
64
65
63
60
61
64
60
56
54
50
49
48
45
45
45
42
43
43
38
38
37
37
40
41
49
61
83
95
96
99
97
97
97
97
97
97
91
88
87
84
84
84
79
75
72
70
72
73
76
65
62
63
62
56
54
52
54
53
49
47
47
46
41
39
40
36
38
38
37
40
41
53
67
83
96
101
98
98
98
98
98
98
97
93
93
89
84
82
82
79
76
74
74
75
73
71
69
68
67
66
65
59
53
53
50
49
51
47
45
47
49
47
43
40
38
37
39
44
53
70
91
100
103
105
101
101
101
101
101
101
96
91
88
83
81
77
74
74
75
73
72
69
64
64
61
54
53
54
55
53
50
46
42
46
42
37
38
40
41
39
37
37
46
59
79
88
92
96
93
93
93
93
93
93
88
83
84
86
82
78
73
70
69
69
73
71
68
63
61
61
62
56
54
52
48
47
45
41
41
41
43
40
37
36
40
39
38
34
38
47
62
75
86
93
94
91
91
91
91
91
91
89
87
83
81
78
76
73
68
67
68
66
66
62
62
60
59
61
54
47
46
44
48
47
46
43
43
43
39
35
36
39
38
35
40
50
65
82
88
89
92
91
85
85
85
85
85
85
86
84
77
74
70
70
68
66
62
64
63
64
59
54
52
48
44
44
42
42
40
41
42
40
38
40
34
35
35
36
35
43
54
71
84
91
95
91
91
91
91
91
91
84
84
80
76
74
73
70
70
66
66
67
66
63
60
56
57
55
48
49
49
51
46
46
43
41
38
36
37
37
34
31
31
29
26
30
39
54
73
84
91
95
93
93
93
93
93
93
90
86
84
83
81
81
76
72
71
70
67
64
63
59
57
54
53
49
48
46
48
45
41
40
38
37
41
38
36
35
35
35
32
31
37
46
62
80
91
94
93
93
93
93
93
93
90
88
80
80
76
73
71
64
62
63
63
63
63
63
62
59
56
52
48
44
43
44
43
42
38
35
37
41
34
32
33
31
34
37
48
62
79
95
95
95
95
95
95
95
91
89
84
82
79
77
74
73
67
66
64
63
62
61
62
60
58
57
52
51
45
45
44
45
44
41
34
34
33
31
33
33
30
28
30
28
29
43
56
76
89
97
97
96
96
96
96
96
96
91
86
87
83
80
73
71
70
70
71
70
67
67
65
64
58
57
54
50
48
46
47
46
46
43
38
37
36
36
36
29
30
31
34
49
65
78
88
91
88
88
88
88
88
88
88
86
85
84
82
75
72
69
67
69
69
64
61
62
61
62
57
53
53
46
44
41
40
38
38
35
37
38
36
35
38
35
33
31
31
30
40
55
75
87
94
95
91
91
91
91
91
91
88
84
82
83
79
77
74
69
67
67
66
62
64
62
63
56
54
53
53
52
49
46
45
42
37
34
34
38
36
38
36
35
34
31
35
47
69
79
91
95
102
96
96
96
96
96
96
89
84
80
81
78
70
65
66
64
61
59
62
64
58
56
52
51
50
46
45
45
44
41
38
38
42
43
41
37
34
32
39
49
68
90
92
96
94
94
94
94
94
94
93
91
83
82
82
78
75
71
67
66
65
67
64
63
62
61
57
51
45
44
41
41
40
39
38
37
36
39
37
37
36
33
34
36
53
70
84
95
100
102
94
94
94
94
94
94
89
88
85
80
78
79
75
70
68
70
70
68
65
63
62
61
59
54
55
53
50
48
44
43
44
42
39
37
37
33
33
32
35
43
57
70
85
95
96
96
96
96
96
96
94
94
94
91
87
84
78
76
74
68
66
68
70
67
65
65
64
60
55
52
52
51
48
47
48
47
43
41
44
42
40
38
38
38
40
47
66
81
89
96
97
97
97
97
97
97
94
91
86
84
83
76
72
72
70
71
67
65
66
66
64
59
55
55
55
53
50
47
40
43
42
40
40
41
40
37
35
35
34
39
50
68
85
95
96
98
99
99
99
99
99
99
94
91
89
85
85
78
76
74
72
69
69
69
69
61
61
55
52
49
48
48
47
47
44
42
38
39
34
35
34
33
36
31
30
29
32
43
56
77
89
97
95
95
95
95
95
95
93
89
85
84
84
84
81
75
74
71
73
68
68
65
64
60
56
52
52
50
50
47
45
41
38
36
35
37
36
36
32
35
36
34
34
35
40
50
63
82
87
91
92
89
89
89
89
89
89
87
87
85
81
76
73
67
63
66
65
66
65
60
59
58
51
48
48
47
51
47
43
42
36
37
38
34
32
37
36
35
33
34
35
44
63
76
87
94
93
94
87
87
87
87
87
87
82
84
78
77
68
65
64
64
64
63
61
61
60
58
53
52
49
50
46
46
44
42
39
37
39
36
32
32
34
32
28
28
30
40
56
71
87
92
93
91
91
91
91
91
91
89
86
85
83
80
79
76
71
65
68
70
68
66
64
61
59
54
49
50
49
45
43
43
44
41
40
39
41
39
38
39
38
37
40
51
66
79
92
95
100
94
94
94
94
94
94
89
83
85
84
82
77
75
74
72
71
68
67
68
65
59
59
57
57
55
50
50
49
47
44
44
42
41
40
44
40
40
49
63
78
88
94
95
96
93
93
93
93
93
93
90
86
87
85
81
76
76
77
75
72
69
68
65
63
59
56
59
55
50
49
48
48
48
46
43
42
46
43
39
41
45
67
77
86
97
97
97
97
97
97
97
97
95
92
92
94
89
83
82
77
77
79
79
76
74
75
73
69
64
60
57
54
55
56
53
50
52
47
45
47
46
42
42
40
39
46
63
78
92
96
100
98
98
99
97
97
97
97
97
97
92
89
87
83
80
77
76
76
74
73
73
68
67
64
61
59
57
54
54
53
50
49
46
44
44
45
42
40
41
55
68
80
92
98
96
96
96
96
96
96
91
88
90
89
84
80
79
77
74
75
73
76
69
67
65
63
61
57
52
52
51
46
44
44
46
44
46
44
46
46
39
35
40
43
56
72
85
91
93
88
88
88
88
88
88
86
87
88
86
84
82
71
67
64
60
60
61
60
60
56
53
50
49
53
51
44
42
38
37
40
39
37
36
34
35
33
28
31
33
33
32
45
59
73
79
85
86
85
83
83
83
83
83
83
81
82
76
72
69
65
65
63
61
61
60
57
52
50
49
44
43
41
41
41
37
36
38
35
33
30
35
36
34
36
35
30
32
32
45
55
72
83
84
81
81
81
81
81
81
83
80
78
76
72
69
66
60
60
55
54
57
58
57
56
52
49
51
48
46
42
40
39
40
38
35
35
32
33
33
32
32
39
54
71
79
81
81
79
79
79
79
79
79
75
72
70
67
66
64
62
59
57
60
60
58
53
52
52
46
47
43
40
39
39
40
38
35
34
33
31
35
30
29
33
42
58
71
79
81
81
81
81
81
81
81
79
76
76
73
68
66
67
62
62
60
60
60
55
59
59
57
55
52
50
45
44
41
35
38
39
38
37
37
38
39
34
29
38
47
60
71
81
91
92
92
92
92
92
92
86
78
81
80
81
75
70
65
59
56
57
58
60
60
57
55
56
51
51
50
46
44
40
40
39
44
37
35
31
31
33
31
32
33
42
57
69
81
87
90
90
90
87
87
87
87
87
87
83
80
75
75
69
67
68
68
67
63
59
55
53
54
52
50
47
45
41
39
39
38
38
38
40
38
36
37
31
35
35
43
57
75
86
94
94
89
89
89
89
89
89
86
84
81
78
75
70
69
66
68
62
65
63
63
64
58
55
55
53
51
41
42
45
42
42
40
39
38
37
36
35
40
53
67
79
85
91
89
89
89
89
89
89
87
82
84
82
82
75
70
68
65
66
67
65
60
59
61
58
54
53
51
48
47
43
44
43
41
40
40
40
41
38
39
41
54
69
80
88
90
88
88
88
88
88
88
85
85
87
84
79
77
74
70
73
71
67
70
67
66
66
61
62
59
53
49
50
49
51
47
44
41
39
37
37
38
38
36
41
57
68
80
91
91
95
90
90
90
90
90
90
90
89
86
84
78
77
74
71
71
68
68
66
63
62
61
59
54
54
51
49
46
47
49
46
45
41
43
43
42
42
42
42
52
71
81
91
96
96
95
89
89
89
89
89
89
87
84
80
79
77
78
71
69
71
72
71
70
63
59
56
56
56
52
50
48
46
45
45
42
38
38
40
39
39
37
39
48
66
77
90
95
93
93
93
93
93
93
98
94
89
87
89
87
79
75
72
68
73
70
69
65
62
59
57
53
49
51
51
51
45
44
42
43
45
41
40
39
39
40
36
32
34
42
59
77
86
91
92
89
89
89
89
89
89
87
87
85
81
81
78
72
71
69
67
67
66
65
63
62
60
54
50
50
47
46
43
44
42
42
39
35
37
35
33
35
36
33
34
33
45
57
78
83
93
90
90
90
90
90
90
89
88
84
82
80
75
77
74
70
67
69
67
66
65
60
55
53
53
50
46
45
42
44
42
41
38
39
38
35
36
34
32
34
33
36
46
63
80
91
92
91
89
89
89
89
89
89
85
81
80
76
72
71
70
68
61
63
63
61
59
58
53
52
52
48
44
40
40
40
38
38
38
36
35
35
32
32
34
33
30
33
43
60
73
85
88
92
87
87
87
87
87
87
86
78
78
78
76
69
65
64
64
62
64
60
60
60
57
51
49
48
49
46
45
41
39
39
39
36
36
33
33
34
32
30
31
33
41
54
69
81
90
91
92
90
90
90
90
90
90
83
83
80
76
72
68
66
66
64
66
65
65
64
63
57
56
56
55
53
49
44
44
45
45
39
36
38
37
36
34
32
34
36
47
59
72
89
89
92
89
89
89
89
89
89
83
81
82
79
76
76
71
66
68
64
65
61
58
58
58
58
56
52
49
45
41
40
39
39
39
42
45
37
36
37
34
38
46
60
79
88
95
90
90
90
90
90
90
90
89
85
79
77
74
72
71
68
68
69
67
64
63
60
59
57
56
54
53
53
48
43
43
42
41
39
37
37
38
36
32
32
39
49
62
84
90
95
97
96
93
93
93
93
93
93
92
89
85
81
79
73
69
68
68
68
68
67
64
61
59
56
55
51
49
48
47
44
45
46
43
43
40
42
41
37
38
45
58
72
85
93
95
97
94
94
94
94
94
94
89
86
85
83
80
79
74
75
69
68
69
68
67
62
58
55
54
54
51
46
47
47
48
46
43
39
38
35
41
51
64
78
87
93
97
94
94
94
94
94
94
91
91
87
86
81
75
72
71
71
72
71
72
66
67
64
62
57
55
52
52
51
47
44
47
49
42
38
40
41
42
37
41
50
67
77
88
96
97
96
94
94
94
94
94
94
91
88
87
84
79
79
74
73
71
71
70
70
68
62
59
57
57
54
50
46
46
47
48
47
44
40
39
41
38
34
34
36
42
48
66
85
96
99
99
99
99
99
99
97
93
94
91
90
86
82
78
74
73
70
70
71
68
67
65
63
60
59
53
52
48
48
47
47
49
47
42
39
34
35
36
34
38
59
72
84
90
92
92
92
92
92
92
92
90
92
85
81
80
80
80
74
72
70
68
62
63
61
61
59
55
54
51
48
46
45
43
39
40
41
38
39
38
35
34
38
46
60
75
88
93
96
93
93
93
93
93
93
90
88
91
85
82
77
71
70
67
71
71
68
64
63
62
62
56
53
53
47
52
48
43
40
36
37
37
35
33
31
32
32
37
39
56
72
87
93
93
96
95
95
91
91
91
91
91
91
91
90
81
77
74
69
68
67
66
64
61
59
57
54
54
53
51
50
47
47
46
43
40
36
40
39
37
35
33
31
34
42
61
75
84
87
93
92
89
89
89
89
89
89
89
84
81
79
72
72
69
69
68
64
66
65
62
61
59
52
51
50
43
41
40
39
40
38
37
35
36
34
35
35
43
58
70
82
86
92
92
90
90
90
90
90
90
88
81
79
76
72
68
64
62
59
60
59
60
58
57
54
52
54
51
50
42
42
46
39
35
36
35
33
33
29
27
26
24
34
45
68
79
88
91
90
92
89
89
89
89
89
89
86
87
86
80
75
66
67
69
67
63
61
61
58
60
56
55
52
49
46
45
43
40
38
35
36
35
33
33
31
30
33
39
44
64
77
87
90
89
89
89
89
89
89
82
82
83
82
73
72
69
64
61
63
66
68
65
60
57
56
59
53
51
47
45
42
41
37
36
36
33
31
29
29
27
30
43
60
75
81
89
97
98
93
93
93
93
93
93
90
81
81
79
76
70
71
72
68
65
60
57
56
56
56
53
50
46
46
43
42
40
40
37
35
35
34
34
34
34
34
34
44
61
74
85
92
93
91
91
91
91
91
91
90
88
86
85
81
78
73
69
69
68
67
68
65
62
61
58
56
49
49
50
47
44
40
43
42
41
34
36
37
39
35
33
35
31
30
46
62
84
91
92
89
89
89
89
89
89
91
91
88
86
82
77
73
69
69
70
68
70
67
63
63
60
58
52
49
47
48
49
45
42
40
39
37
36
37
36
33
34
39
54
74
84
89
91
90
90
90
90
90
90
86
83
81
81
77
75
72
68
67
69
66
63
60
60
55
51
50
50
47
42
41
38
38
36
39
37
36
33
31
30
28
31
32
38
53
75
90
93
93
91
91
91
91
91
91
89
87
83
80
80
76
70
65
61
64
66
62
63
59
59
58
52
50
46
45
39
41
39
40
35
35
27
28
32
30
26
26
27
28
34
46
63
80
93
94
95
91
91
91
91
91
91
87
84
84
79
73
68
66
65
63
61
61
61
61
59
56
51
48
43
43
43
41
38
41
39
36
33
34
30
35
31
29
34
46
59
74
83
85
84
83
83
83
83
83
83
79
74
72
71
68
68
63
61
60
57
61
58
53
51
49
48
45
44
40
38
36
34
32
31
33
34
34
28
27
26
29
31
43
58
75
85
94
91
91
91
91
91
91
89
84
80
79
78
74
72
64
61
60
60
60
59
60
57
53
51
48
47
44
44
38
35
35
33
35
33
31
31
26
27
27
32
42
62
75
82
90
91
91
89
89
89
89
89
89
86
84
82
77
67
66
62
60
58
58
60
59
56
55
54
47
44
43
41
40
38
37
34
33
32
32
40
53
68
78
85
92
92
92
92
92
92
92
86
82
80
77
74
66
61
60
61
58
57
56
55
54
51
51
45
41
38
40
37
37
35
33
41
50
60
79
87
89
94
90
90
90
90
90
90
85
83
80
73
68
64
61
59
57
56
57
59
57
53
56
51
45
43
44
44
39
36
36
34
32
34
36
42
58
74
85
91
92
91
90
90
90
90
90
90
85
83
76
70
67
71
67
68
69
70
68
66
63
60
58
54
51
47
47
42
40
38
38
36
34
34
33
37
41
56
72
83
91
92
89
89
89
89
89
89
87
84
84
78
74
67
62
60
59
60
59
58
55
55
51
50
47
46
45
40
38
37
35
36
31
28
25
24
26
25
23
23
28
44
62
76
86
96
99
97
97
97
97
97
97
95
89
87
86
86
80
76
74
72
72
70
66
65
61
56
56
54
51
48
45
41
40
32
27
26
24
24
25
26
22
27
26
24
22
34
52
65
78
87
89
88
87
82
82
82
82
82
82
79
73
70
65
60
56
59
61
62
62
58
58
54
52
51
49
46
46
44
44
41
36
33
39
47
56
66
83
89
89
92
87
87
87
87
87
87
83
80
76
73
64
62
61
62
67
64
62
63
59
57
52
48
44
43
41
40
38
35
32
37
47
64
77
89
93
97
95
95
95
95
95
95
89
86
85
82
78
71
69
69
68
67
64
61
63
57
56
52
50
48
49
46
41
39
40
43
59
74
87
95
98
99
98
90
90
90
90
90
90
87
83
80
77
73
71
69
68
69
68
64
57
56
56
55
47
45
45
46
43
40
36
38
43
64
77
86
93
95
95
89
89
89
89
89
89
89
85
77
75
71
67
68
67
64
67
63
62
59
57
56
51
46
44
41
39
37
37
34
35
35
32
30
31
36
52
66
85
92
95
93
93
93
93
93
93
94
92
86
80
76
72
72
66
66
68
64
62
60
56
55
56
51
48
45
44
44
40
37
38
36
33
29
30
28
27
25
23
24
20
20
20
20
31
48
67
83
97
101
99
99
99
99
99
99
96
86
86
81
81
73
66
65
62
63
63
61
60
59
59
53
49
45
41
38
36
33
35
34
33
29
29
28
26
24
28
27
24
26
22
23
24
19
19
23
30
42
64
82
99
104
104
104
97
97
97
97
97
97
89
86
79
74
72
68
67
66
69
66
65
64
60
58
55
50
48
45
41
38
36
34
34
33
32
34
32
27
23
26
29
30
29
28
33
33
38
51
66
88
102
109
111
110
103
103
103
103
103
103
96
93
86
81
75
72
68
66
67
65
66
66
62
61
58
56
55
51
48
47
47
47
43
39
37
37
38
34
34
32
32
30
30
31
33
42
60
78
94
104
105
104
100
100
100
100
100
100
96
89
86
79
75
72
72
66
63
63
66
69
69
64
61
57
56
53
52
50
50
47
44
43
40
43
42
36
36
39
42
43
41
42
47
58
72
88
95
98
102
102
97
97
97
97
97
97
90
86
81
78
72
70
67
66
68
68
66
63
60
59
57
56
52
49
47
46
42
41
42
43
45
44
40
42
40
40
43
54
66
81
88
94
94
90
90
90
90
90
90
85
83
77
72
70
67
64
63
65
65
64
65
60
63
60
57
56
53
53
49
47
45
43
43
42
40
39
37
38
39
39
40
53
67
79
89
98
100
95
95
95
95
95
95
96
91
87
84
79
78
74
71
71
69
70
70
66
66
62
60
58
58
54
51
49
48
49
46
45
42
44
43
42
39
40
40
48
56
67
81
92
102
103
99
99
99
99
99
99
96
92
87
86
83
80
76
77
75
73
71
72
71
67
66
64
66
64
63
59
54
52
51
51
49
47
47
46
45
43
41
40
41
39
38
40
49
67
80
96
102
101
99
96
96
96
96
96
96
95
94
90
87
81
77
78
77
76
77
74
73
71
68
66
63
61
59
55
57
55
56
53
50
47
47
46
44
45
44
43
43
42
40
44
53
65
80
94
98
99
100
97
97
97
97
97
97
95
92
88
85
83
80
78
77
76
76
71
72
72
68
67
64
59
56
52
52
54
50
49
45
48
47
49
46
41
41
41
45
43
48
63
78
89
97
99
99
96
96
96
96
96
96
94
92
88
87
84
80
80
78
78
78
76
75
74
70
68
66
63
59
57
57
55
54
52
50
46
46
46
43
43
41
39
41
42
45
54
68
86
99
103
103
101
100
100
100
100
100
100
96
92
90
88
84
80
77
74
76
77
76
75
73
68
63
61
60
60
57
57
55
54
53
49
46
43
43
43
41
38
38
39
42
45
54
70
86
96
99
96
96
96
96
96
96
94
94
90
89
85
80
79
77
76
74
71
73
72
69
66
64
61
60
58
55
55
51
47
48
50
48
45
42
40
43
44
44
40
42
45
52
67
79
89
92
93
92
91
91
91
91
91
91
87
86
83
76
74
73
74
72
72
71
71
69
64
63
63
59
55
53
50
48
47
46
44
44
43
40
40
39
39
37
37
39
52
67
83
93
97
99
95
95
95
95
95
95
93
89
84
83
80
77
73
70
72
72
69
67
65
63
61
59
61
56
56
54
51
50
50
48
46
46
46
44
41
41
42
38
34
39
48
63
80
86
89
91
92
92
92
92
92
92
92
90
86
83
82
78
73
73
74
71
71
68
66
63
62
61
60
57
53
52
49
44
44
45
45
44
44
39
39
37
37
37
38
48
56
71
83
92
93
88
88
88
88
88
88
86
87
85
82
80
79
75
75
74
74
71
68
65
64
67
63
62
58
55
54
52
51
49
45
45
45
42
41
38
36
34
36
38
48
62
78
87
90
91
90
90
90
90
90
90
92
88
86
82
82
78
76
75
72
71
70
65
66
66
62
60
55
54
53
48
46
47
45
43
42
42
41
42
37
35
36
36
33
35
46
63
76
88
90
90
88
88
88
88
88
88
87
84
83
81
78
77
71
70
67
67
66
64
64
63
61
56
53
54
50
47
46
42
43
42
40
39
39
37
40
37
34
34
31
34
39
55
67
77
87
86
84
84
84
84
84
84
84
81
76
73
67
67
66
66
63
62
65
61
62
62
60
56
51
47
47
46
43
40
38
38
37
37
35
36
37
34
35
40
50
64
74
78
82
83
79
79
79
79
79
79
76
74
71
70
68
64
62
60
62
63
61
61
53
51
49
48
44
43
43
42
38
39
38
33
31
32
29
31
34
42
59
74
89
93
92
92
91
81
81
81
81
81
81
79
78
74
73
69
65
65
64
63
60
63
59
58
55
52
50
49
46
43
42
40
37
36
32
30
30
27
27
32
45
64
76
84
89
90
91
93
85
85
85
85
85
85
83
84
81
78
76
71
73
69
70
69
63
61
58
53
51
48
49
46
42
42
38
38
39
37
35
36
35
34
37
48
72
86
91
93
91
90
90
90
90
90
90
90
86
81
80
75
71
70
66
62
64
67
64
60
61
60
59
51
46
43
42
44
41
40
40
34
31
32
32
32
37
52
61
76
88
93
88
88
88
88
88
88
88
88
89
82
82
76
73
69
66
66
66
68
67
60
58
53
50
53
50
45
44
45
43
40
41
40
39
41
35
36
38
37
50
63
77
85
94
95
94
89
89
89
89
89
89
86
84
80
80
77
71
66
66
66
63
63
61
60
60
55
51
47
47
46
46
44
45
40
36
33
34
30
32
32
32
33
28
27
28
38
54
69
87
91
93
92
90
90
90
90
90
90
90
86
84
82
77
72
69
66
62
63
63
61
63
56
52
50
49
41
44
47
44
40
37
34
38
39
35
33
30
31
28
25
20
21
23
30
48
62
78
88
86
86
86
86
86
86
85
85
84
81
82
76
67
67
63
62
59
60
60
59
57
51
47
45
46
40
37
40
40
39
35
34
37
36
35
34
37
40
54
63
80
90
95
93
87
87
87
87
87
87
84
79
78
75
70
62
61
62
61
58
60
59
58
57
53
52
49
47
41
39
38
35
35
37
33
30
26
24
23
30
42
58
72
87
96
97
92
92
92
92
92
92
85
84
84
83
78
69
66
67
64
62
62
62
63
57
48
49
47
43
42
40
38
36
35
36
36
31
30
32
39
49
67
81
92
95
95
92
92
92
92
92
92
89
87
80
77
73
69
65
66
65
65
62
62
57
58
56
54
53
52
52
49
46
42
41
42
46
58
75
84
93
95
93
93
93
93
93
93
90
89
86
80
77
75
71
71
68
69
66
64
68
61
59
55
54
53
50
48
48
41
42
37
35
37
49
65
81
94
98
102
101
101
98
98
98
98
98
98
98
95
89
83
78
78
75
71
72
69
69
67
63
61
60
56
50
44
42
40
38
39
37
37
36
37
38
38
50
67
83
94
102
100
100
100
100
100
100
100
99
94
92
91
91
86
80
78
75
76
77
77
73
72
68
66
63
60
58
54
51
49
48
48
43
41
40
38
37
33
35
45
64
84
95
101
102
100
100
100
100
100
100
99
99
96
90
86
81
81
75
73
74
72
72
68
65
64
59
57
54
52
52
48
45
45
41
42
39
35
34
33
30
31
30
32
30
32
43
64
83
92
93
94
93
89
89
89
89
89
89
84
80
79
78
72
68
66
64
62
63
65
63
60
60
59
48
47
42
43
38
36
30
29
33
27
26
26
25
24
23
21
22
31
49
63
83
91
92
92
92
92
92
92
89
85
82
78
75
68
64
62
60
59
57
58
58
56
54
50
48
43
40
36
39
37
31
32
34
29
28
27
30
43
57
73
78
84
84
84
80
80
80
80
80
80
78
76
69
69
64
62
61
60
56
58
56
57
53
51
47
44
40
37
35
32
30
30
30
31
29
28
23
23
27
31
47
66
81
88
90
89
89
89
89
89
89
86
82
79
78
73
73
69
67
65
62
63
64
61
57
55
53
51
50
47
41
39
38
36
31
32
31
32
29
28
28
27
31
41
64
83
87
91
88
88
88
88
88
88
86
83
82
80
73
66
65
62
60
65
67
62
59
56
56
51
48
46
45
41
43
36
32
31
33
33
35
31
28
28
22
22
27
38
57
75
88
92
95
93
93
93
93
93
93
85
86
79
74
70
63
60
60
59
61
63
60
55
54
49
48
49
47
44
39
38
36
36
31
28
29
30
30
30
39
56
77
85
90
91
89
89
89
89
89
89
85
79
76
71
69
62
59
57
58
60
62
60
58
55
50
47
46
43
41
39
35
32
32
29
29
29
26
27
33
44
64
81
89
93
90
90
90
90
90
90
87
86
81
78
78
70
69
65
63
64
65
64
59
54
51
52
49
44
42
40
37
34
35
33
34
33
29
30
32
46
63
80
87
89
89
89
87
87
87
87
87
87
82
79
78
74
64
60
61
58
57
54
57
56
59
56
54
49
46
44
37
38
36
34
33
30
29
32
41
55
66
87
93
92
88
88
88
88
88
88
84
84
83
76
68
66
61
61
62
60
59
62
59
57
51
51
46
42
40
39
37
37
36
34
34
43
61
78
87
90
90
90
90
90
90
89
87
83
80
75
71
67
64
61
61
58
56
57
53
54
52
48
45
44
40
41
36
32
32
39
57
75
84
91
94
93
92
92
92
92
92
92
86
80
78
71
67
63
60
61
62
61
61
60
56
52
50
50
48
45
40
42
43
53
64
79
92
97
97
95
95
95
95
95
95
87
84
82
82
77
73
68
64
63
61
60
60
62
58
53
51
47
49
47
40
36
42
52
73
84
92
95
94
91
91
91
91
91
91
89
87
84
78
72
67
66
65
64
64
66
64
60
59
55
56
52
49
45
35
39
38
39
45
60
79
93
93
94
93
91
91
91
91
91
91
89
86
82
83
77
75
73
68
68
69
69
66
60
56
54
51
43
39
38
39
36
35
38
48
69
78
86
91
90
92
90
90
90
90
90
90
92
89
85
76
72
68
68
64
63
64
60
60
56
55
51
46
44
41
38
34
37
49
61
75
86
91
90
92
92
92
92
92
92
87
83
82
78
77
68
60
59
59
58
58
58
57
55
47
40
42
42
41
38
35
32
29
36
47
61
78
87
93
96
91
91
91
91
91
91
86
84
82
72
68
67
62
60
57
56
57
54
52
45
43
45
42
35
31
34
34
29
29
28
28
26
31
43
63
79
88
90
88
88
88
88
88
88
85
78
74
71
70
63
61
60
60
61
55
51
50
47
48
41
38
36
33
31
28
29
26
25
25
20
20
22
19
23
31
45
63
79
85
87
84
84
84
84
84
84
77
74
71
70
65
58
55
54
54
51
49
49
47
44
40
38
36
37
33
31
31
26
26
25
24
19
20
18
20
29
47
64
77
86
89
85
85
85
85
85
85
81
73
65
63
60
58
52
49
51
53
50
48
46
46
44
41
34
31
31
27
26
22
22
23
22
22
21
18
18
21
31
52
67
80
86
85
83
83
83
83
83
83
76
71
68
65
61
58
54
53
52
49
53
51
49
46
44
42
37
33
33
32
30
28
26
27
25
21
21
24
34
48
62
77
88
88
88
88
88
88
88
85
81
73
69
67
62
54
51
50
50
50
51
52
48
48
44
41
39
36
32
31
31
30
29
27
21
23
25
27
39
52
70
80
82
81
81
80
80
80
80
80
80
75
69
64
61
53
51
50
55
55
55
52
48
43
45
44
39
37
36
32
30
30
34
37
45
60
71
85
85
88
85
85
85
85
85
85
79
73
69
65
60
54
53
52
52
49
54
53
54
49
46
46
42
42
38
38
36
39
53
67
87
93
94
94
94
94
94
94
90
86
85
80
72
66
65
62
60
57
57
60
58
55
53
52
49
45
44
45
38
38
42
53
68
89
92
96
95
97
93
93
93
93
93
93
85
81
76
69
64
62
60
60
61
61
60
55
56
55
51
49
47
45
43
40
44
60
81
89
96
100
98
98
98
98
98
98
98
93
83
77
73
68
65
66
63
64
66
63
64
66
61
53
49
47
49
46
42
35
36
38
49
69
87
96
104
104
101
101
101
101
101
101
98
99
93
91
87
80
77
77
77
74
69
68
68
66
64
60
55
52
47
44
43
43
40
39
35
38
38
37
46
63
91
97
102
103
105
102
102
102
102
102
102
96
90
87
80
72
72
72
72
66
64
66
63
62
59
55
52
49
48
47
44
44
37
39
39
37
36
32
34
40
59
75
90
96
102
98
98
98
98
98
98
94
88
84
76
72
67
68
68
66
66
62
64
61
58
54
54
52
50
44
42
39
39
32
31
26
26
28
37
50
69
86
95
100
98
98
98
98
98
98
96
90
86
81
75
65
66
67
66
66
62
61
62
59
57
54
51
47
42
41
37
36
37
36
31
42
51
73
90
96
106
100
100
100
100
100
100
93
93
90
83
73
69
69
66
64
66
62
60
58
56
54
51
49
50
47
47
46
40
39
34
36
40
53
73
85
91
97
94
94
94
94
94
94
92
86
81
79
71
68
66
65
68
66
65
64
66
62
58
49
46
45
44
42
40
39
41
37
39
42
58
75
87
95
97
96
90
90
90
90
90
90
86
81
77
73
68
63
61
63
61
61
60
58
55
52
47
47
44
38
38
36
38
37
31
32
35
49
64
77
92
96
96
96
96
96
96
96
90
90
88
83
75
65
62
63
62
62
64
63
62
57
54
51
50
50
46
43
41
41
39
39
37
40
49
64
77
90
97
100
95
95
95
95
95
95
89
83
80
74
68
66
66
63
61
65
63
63
61
54
55
55
53
49
44
41
44
40
41
36
36
41
57
71
86
97
100
98
98
98
98
98
98
92
86
86
82
81
78
75
69
67
66
64
65
60
59
56
53
54
49
44
43
45
37
36
37
35
38
40
46
63
81
93
100
104
101
101
101
101
101
101
96
92
89
84
76
74
71
72
71
70
66
62
60
59
60
58
56
48
46
44
42
39
42
39
35
34
35
40
53
70
89
100
103
103
99
99
99
99
99
99
95
91
86
81
75
69
71
70
67
68
66
66
63
62
62
59
56
50
49
48
44
44
43
39
38
33
32
41
56
71
85
95
101
102
96
96
96
96
96
96
88
84
84
82
75
71
72
73
70
68
67
66
65
59
57
52
51
46
46
43
41
40
39
39
34
35
35
31
35
45
58
74
93
104
105
102
102
102
102
102
102
99
94
87
84
76
73
71
68
69
69
63
63
60
60
56
57
55
54
49
48
44
43
43
39
40
34
29
29
29
29
29
35
47
62
81
94
94
95
94
94
94
94
94
94
92
92
86
82
79
72
73
65
64
64
64
64
61
59
57
54
50
42
41
42
39
37
33
31
30
29
33
32
29
29
29
40
60
75
89
93
97
97
97
97
97
97
97
92
82
81
76
71
65
62
63
63
59
58
58
59
59
60
55
51
47
43
42
37
40
38
31
33
32
36
50
66
76
90
92
94
92
92
92
92
92
92
87
83
78
71
67
65
62
60
61
58
57
56
52
52
51
51
48
44
43
40
38
38
45
57
69
83
91
96
95
99
93
93
93
93
93
93
92
91
88
87
78
74
70
69
71
71
69
65
61
59
54
53
48
46
46
45
49
62
76
89
94
100
98
98
98
98
98
98
95
91
89
86
79
71
70
66
66
65
62
60
56
59
53
51
48
48
43
39
37
40
48
60
80
89
92
93
91
91
91
91
91
91
93
88
84
81
77
68
64
64
63
60
63
62
58
55
53
48
48
47
41
37
37
38
37
44
55
74
88
95
98
95
95
95
95
95
95
91
86
81
79
73
71
67
64
63
63
58
56
59
54
53
51
51
44
41
39
36
34
35
33
31
33
39
64
77
84
89
89
86
86
86
86
86
86
85
80
73
68
67
66
62
60
61
62
62
60
54
54
51
46
46
42
40
41
39
35
32
29
27
32
46
63
76
89
94
94
92
92
92
92
92
92
88
86
84
75
72
69
67
62
57
57
58
58
55
51
51
52
50
44
41
41
38
34
34
33
32
35
37
46
62
82
99
104
102
102
102
102
102
102
98
92
88
83
79
76
72
71
66
66
65
63
64
65
63
60
53
50
43
39
34
31
32
36
41
44
44
46
58
70
84
89
90
90
87
87
87
87
87
87
86
81
81
74
72
65
63
60
58
59
62
59
60
60
56
50
46
43
40
39
36
39
41
39
44
55
66
72
79
83
80
80
80
80
80
80
79
75
65
63
57
56
55
51
51
51
50
50
48
43
43
41
40
38
34
31
33
34
29
33
41
55
66
77
74
74
74
74
74
74
72
71
69
63
54
48
47
44
39
38
41
44
43
40
40
41
40
34
37
38
36
32
33
32
43
55
66
73
70
70
70
70
70
70
68
60
56
51
48
39
32
30
32
29
30
32
35
32
34
32
32
25
24
23
18
22
26
39
53
63
68
68
68
68
68
68
68
63
60
56
45
35
33
34
34
32
32
34
35
36
35
36
31
31
27
24
26
32
35
47
63
70
70
70
70
70
70
70
69
65
59
51
46
36
38
34
35
39
42
41
38
42
40
40
31
28
28
26
34
42
59
70
77
75
75
75
75
75
75
72
65
60
55
51
49
47
44
45
47
51
50
49
48
45
45
41
40
37
38
46
57
69
77
81
82
78
78
78
78
78
78
74
69
64
60
55
53
49
50
53
57
52
47
49
44
46
42
40
43
50
63
75
81
84
82
82
82
82
82
82
80
78
75
72
64
60
57
55
56
55
55
59
56
50
52
54
52
47
43
44
55
64
73
84
87
83
83
83
83
83
83
80
78
77
78
71
62
59
60
58
60
61
59
60
56
53
51
47
47
40
40
47
58
70
86
94
97
97
92
92
92
92
92
92
87
81
75
70
62
65
62
60
60
57
61
57
56
53
51
51
39
38
40
35
28
30
39
63
80
95
102
101
99
99
99
99
99
99
95
91
88
80
74
64
65
66
66
62
64
63
60
62
56
49
48
48
44
39
39
39
36
34
36
34
33
33
30
38
55
78
93
106
109
104
104
104
104
104
104
95
93
88
83
75
72
69
65
62
64
64
61
58
56
59
55
53
52
49
50
45
43
43
40
39
38
34
35
32
30
30
24
26
25
26
35
52
66
84
93
107
103
103
103
103
103
103
95
90
87
85
79
74
66
65
64
63
64
61
62
62
60
53
50
49
46
45
45
43
40
39
39
41
40
36
34
34
34
32
28
32
30
30
31
35
47
66
87
93
96
95
94
94
94
94
94
94
91
85
79
76
71
68
72
71
70
68
66
66
60
54
55
52
48
46
44
46
44
42
38
37
33
32
33
37
35
33
34
30
34
30
25
21
24
40
58
71
85
98
102
99
99
99
99
99
99
94
85
80
77
74
70
68
69
69
75
76
72
69
67
66
63
58
52
50
52
48
44
45
45
44
44
41
34
33
32
32
34
34
35
40
49
65
85
98
101
106
103
96
96
96
96
96
96
86
79
78
74
68
68
67
66
65
65
65
61
62
59
58
55
53
49
48
49
44
42
41
40
43
44
39
36
37
35
39
49
60
81
94
101
100
99
99
99
99
99
99
96
92
88
77
72
73
68
69
67
67
70
65
64
64
60
56
49
51
49
47
45
43
40
39
36
38
39
40
52
61
79
90
94
94
100
95
95
95
95
95
95
88
85
82
72
67
61
61
64
66
71
66
66
66
63
62
57
57
52
48
49
47
44
50
53
71
83
96
103
102
102
102
102
102
102
99
96
92
85
82
74
71
70
71
73
73
71
69
64
63
59
57
54
53
54
54
54
47
48
47
48
61
76
91
97
103
104
103
98
98
98
98
98
98
90
86
82
82
77
71
72
70
73
73
72
71
67
68
68
63
58
54
54
54
56
58
67
80
96
105
106
107
104
104
104
104
104
104
102
99
92
87
85
78
77
80
78
78
76
72
71
69
67
64
62
59
57
53
56
63
76
91
103
106
108
109
107
101
101
101
101
101
101
98
95
92
87
83
82
83
85
84
80
78
75
73
71
69
67
65
63
60
59
60
62
73
86
96
103
105
106
106
102
102
102
102
102
102
97
95
96
91
89
87
85
88
85
85
87
83
78
75
75
77
72
69
68
68
66
65
64
60
60
62
60
63
72
83
93
103
105
105
103
102
100
100
100
100
100
100
98
93
92
92
92
92
92
90
88
85
81
77
74
71
67
67
65
64
63
60
60
60
59
56
56
53
51
53
60
70
82
86
87
88
86
86
86
86
86
86
85
83
80
75
71
70
67
66
66
65
65
66
65
60
58
56
57
54
51
51
48
48
48
44
42
42
40
43
47
56
67
75
81
81
80
80
80
80
80
80
78
74
74
69
63
61
60
60
61
59
57
59
57
56
54
53
53
51
53
52
47
46
47
47
44
45
48
55
63
73
79
82
82
81
81
81
81
81
81
81
75
72
74
71
70
66
63
61
61
60
59
57
55
53
51
45
41
37
36
35
33
26
26
29
39
54
73
81
85
87
87
87
87
87
87
86
83
79
77
71
67
61
57
56
56
58
56
52
49
47
46
46
40
37
34
35
27
30
23
28
32
43
64
72
82
88
84
84
84
84
84
84
82
80
79
72
69
64
65
62
60
60
60
60
54
50
52
46
46
43
41
38
36
34
29
31
35
46
60
71
79
85
82
82
82
82
82
82
84
82
77
77
72
68
67
62
58
56
61
62
63
60
59
55
50
48
44
43
41
41
36
36
37
43
62
73
83
87
91
94
90
90
90
90
90
90
85
82
79
76
70
69
64
61
62
60
57
55
51
51
48
43
43
42
39
36
39
37
31
34
52
66
84
89
92
94
96
97
90
90
90
90
90
90
86
80
78
73
69
69
68
64
62
63
60
57
55
53
56
52
46
40
39
38
35
30
36
52
70
82
91
97
98
98
93
93
93
93
93
93
91
86
80
79
77
75
72
68
66
72
72
65
61
58
55
51
47
41
41
39
31
29
30
28
27
25
29
39
59
79
90
95
96
92
92
92
92
92
92
91
94
88
83
78
73
67
69
68
66
61
60
59
55
48
48
48
42
39
37
36
31
27
30
24
23
24
26
27
20
20
24
35
54
72
88
92
91
91
91
91
91
91
91
88
81
80
81
71
68
64
61
65
64
65
61
60
57
51
48
42
42
36
32
29
33
29
30
25
26
25
20
17
16
17
16
15
15
17
22
36
54
68
81
92
96
93
93
93
93
93
93
87
84
79
67
66
64
61
58
60
59
58
55
53
49
50
45
38
35
37
35
30
31
32
30
25
22
19
16
16
16
15
18
15
15
12
14
16
22
39
59
75
89
86
86
86
86
86
86
87
86
80
81
71
68
62
59
57
56
58
55
56
53
54
51
47
44
43
41
35
34
33
35
38
35
31
27
26
29
30
28
22
24
26
23
20
27
43
54
75
86
88
87
87
87
87
87
87
85
82
77
74
71
67
64
66
60
56
58
58
58
57
57
54
53
47
45
42
38
39
40
34
34
34
34
33
34
31
30
32
36
51
64
76
85
93
99
97
97
97
97
97
97
90
88
80
77
73
72
71
67
69
70
68
64
60
58
61
56
51
51
48
48
42
38
39
41
40
39
36
34
30
30
26
30
40
57
70
84
94
97
93
93
93
93
93
93
93
92
89
85
78
74
69
67
65
66
70
64
62
60
61
57
50
43
44
44
39
38
37
37
35
32
33
35
39
33
35
42
59
76
86
94
96
93
93
93
93
93
93
91
86
85
84
80
77
72
68
66
67
68
68
66
62
62
57
54
53
51
49
49
48
44
42
38
39
38
34
33
34
37
42
60
74
91
97
101
101
97
97
97
97
97
97
94
90
88
89
83
80
77
80
79
77
74
71
67
64
63
59
53
52
51
48
43
44
43
46
46
45
40
35
35
35
38
46
58
71
85
95
101
97
97
97
97
97
97
97
96
92
86
84
82
76
76
72
69
73
73
71
70
63
55
59
53
55
52
45
41
39
37
38
38
38
34
33
35
35
35
39
54
70
88
95
97
96
96
96
96
96
96
96
90
86
80
79
77
76
73
72
68
66
66
69
62
60
58
54
56
50
47
44
44
45
43
39
39
38
41
39
36
36
37
49
60
70
84
92
92
91
91
87
87
87
87
87
87
85
77
75
75
70
69
68
69
69
69
65
59
60
56
50
49
48
48
44
38
37
35
35
37
35
32
34
32
35
45
59
76
86
96
100
97
97
97
97
97
97
89
86
87
85
78
74
72
70
67
66
65
64
64
62
58
52
50
50
51
46
43
39
39
38
38
35
33
35
33
37
38
45
62
81
91
94
92
92
92
92
92
92
93
88
88
84
81
77
72
70
70
68
66
67
66
68
63
57
55
52
53
47
41
42
39
36
34
36
33
29
28
30
28
30
44
65
84
92
96
93
93
93
93
93
93
91
94
88
82
81
77
70
67
63
64
66
64
61
60
60
59
53
51
47
48
46
44
46
42
41
41
41
42
43
35
33
37
47
69
83
92
93
96
93
93
93
93
93
93
91
90
89
86
86
83
79
73
69
66
66
64
64
63
58
61
56
51
51
45
44
42
41
40
38
35
37
37
34
32
33
34
37
56
72
87
96
97
95
95
95
95
95
95
92
89
88
85
81
79
73
74
71
68
68
67
66
62
62
58
52
51
53
52
47
45
42
41
41
40
38
34
33
29
29
30
37
51
67
79
88
89
88
89
84
84
84
84
84
84
82
77
76
69
66
65
66
68
67
65
63
60
56
50
49
45
44
41
37
37
34
33
30
32
35
37
31
30
31
33
46
56
78
88
89
92
91
91
91
91
91
91
83
78
72
74
74
71
66
63
61
60
60
58
59
56
56
49
44
44
44
44
37
35
35
35
33
33
32
32
28
27
33
45
64
74
83
87
87
84
84
84
84
84
84
80
79
82
77
71
69
71
66
65
62
63
61
58
56
53
48
44
43
44
42
39
40
38
37
35
33
31
32
31
34
35
50
65
80
89
87
87
87
87
87
87
88
86
85
82
78
74
71
67
63
64
60
60
62
61
63
56
54
51
49
48
41
39
37
36
38
37
35
34
35
33
32
30
31
43
61
76
86
88
91
91
88
88
88
88
88
88
81
79
75
72
71
66
61
62
60
59
60
59
56
53
48
46
45
42
38
35
36
32
34
33
36
35
36
32
32
31
35
48
63
75
85
86
87
86
86
86
86
86
86
84
80
80
80
75
69
65
65
63
61
58
60
55
54
55
50
50
48
45
46
43
37
38
37
35
32
33
30
28
27
27
27
38
53
68
90
92
92
90
90
90
90
90
90
85
87
84
78
76
72
71
68
66
66
65
63
61
57
53
54
50
47
45
41
39
37
39
39
38
34
34
37
38
32
27
29
28
35
50
76
84
87
91
89
89
89
89
89
89
88
85
84
78
70
68
68
66
64
69
63
62
63
59
59
56
49
47
46
46
44
42
38
37
36
33
31
33
33
34
35
29
25
29
33
57
70
88
94
91
91
91
91
91
91
92
90
87
82
77
75
70
67
65
65
65
64
61
61
61
58
60
58
48
45
42
39
36
34
34
35
36
39
35
34
32
30
29
26
29
34
53
65
85
91
92
88
88
88
88
88
88
94
93
85
81
77
77
77
70
66
63
63
61
59
56
56
54
52
49
45
42
42
41
40
38
38
35
37
38
36
33
33
30
35
36
44
62
78
90
91
92
93
90
90
90
90
90
90
82
78
80
77
75
71
71
67
67
71
68
68
61
59
57
52
48
51
47
44
39
37
40
37
36
37
35
32
28
27
26
29
47
56
76
93
97
100
99
99
99
99
99
99
92
87
87
85
80
75
73
68
67
66
64
61
57
56
56
53
51
55
52
47
46
44
41
40
41
42
40
37
38
33
32
30
31
37
55
74
86
93
91
91
91
91
91
91
89
92
88
86
85
84
79
75
71
68
68
71
72
71
67
63
56
54
51
51
48
45
44
43
43
40
36
37
34
32
32
35
36
38
38
44
63
84
94
98
95
95
95
95
95
95
94
90
87
83
80
76
75
72
70
70
67
66
67
69
67
62
60
54
53
53
49
47
46
43
43
42
37
38
38
36
31
30
29
31
39
53
71
92
99
97
97
97
97
97
97
94
93
92
91
91
90
81
75
70
71
70
68
67
70
65
60
58
56
53
48
46
44
42
39
40
39
39
38
36
34
35
34
34
33
38
47
65
87
92
95
93
93
93
93
93
93
90
88
87
83
81
76
76
75
74
71
69
68
71
65
58
59
56
58
53
48
45
41
39
36
35
38
35
32
32
33
30
32
33
43
52
69
82
85
94
96
89
89
89
89
89
89
85
82
86
82
79
76
69
66
65
65
67
63
62
58
56
56
54
48
51
49
44
39
39
42
39
32
34
34
35
31
26
26
29
37
56
70
87
88
92
91
91
91
91
91
91
88
85
85
84
84
82
75
72
69
68
68
66
62
63
61
57
55
50
52
47
43
43
41
41
38
39
38
36
35
36
35
35
35
38
54
72
91
93
94
91
91
91
91
91
91
88
82
77
75
72
71
68
65
64
66
67
64
68
61
57
53
54
55
50
50
44
43
44
40
36
35
35
32
31
31
45
54
75
87
98
98
94
94
94
94
94
94
93
91
88
86
83
77
75
71
70
66
69
68
66
64
60
59
54
52
45
46
43
43
40
39
41
39
35
34
37
45
56
71
87
99
97
97
97
97
97
97
99
96
93
91
90
89
85
83
81
74
75
75
71
69
71
69
69
63
57
57
54
47
45
45
48
45
46
45
39
38
35
45
61
75
94
99
103
100
100
100
100
100
100
99
96
99
99
96
90
87
85
80
76
74
75
73
73
66
61
59
56
52
53
51
50
45
49
46
46
47
45
45
53
62
76
92
95
103
102
101
100
101
94
94
94
94
94
94
91
86
82
78
75
75
75
75
74
67
67
64
62
60
56
60
58
54
51
47
48
45
42
39
41
36
36
36
45
61
76
84
93
95
93
89
89
89
89
89
89
91
90
89
85
80
76
75
71
72
71
73
71
66
64
62
60
58
52
52
49
46
42
44
42
41
40
44
50
68
79
90
95
94
94
94
94
94
94
90
86
88
87
79
77
73
67
68
69
69
68
66
61
54
54
54
49
47
49
48
44
40
38
38
38
33
30
39
53
67
79
85
86
85
85
85
85
85
85
84
82
79
77
72
68
68
68
66
66
64
62
58
58
52
50
50
47
41
40
37
32
31
33
32
29
25
25
26
28
43
62
78
84
85
86
81
81
81
81
81
81
82
80
76
73
72
69
65
59
58
57
57
52
51
52
49
45
40
40
35
38
38
36
34
28
27
27
29
38
46
60
71
74
77
77
77
77
77
77
77
77
73
73
71
67
64
58
53
52
53
53
54
51
49
49
45
41
40
39
41
36
33
32
25
27
37
53
65
73
76
79
77
77
77
77
77
77
75
70
67
65
61
60
56
54
58
56
56
55
55
56
52
46
44
41
37
36
35
35
30
28
26
31
38
50
64
79
82
82
79
79
79
79
79
79
76
78
73
69
66
65
58
58
52
50
48
48
48
48
47
43
41
39
39
37
37
34
36
32
29
30
27
26
33
40
60
70
75
80
80
79
76
76
76
76
76
76
74
73
70
63
61
60
57
54
56
56
56
52
52
44
42
41
37
39
37
35
35
34
31
33
30
30
29
29
32
40
55
71
80
84
82
82
82
82
82
82
83
77
78
75
69
65
58
58
60
60
58
58
52
49
48
47
42
41
40
39
39
38
32
31
32
27
28
29
29
30
26
24
20
28
38
66
77
83
84
81
81
81
81
81
81
79
77
74
67
67
64
60
63
61
61
59
60
61
59
53
51
52
42
38
37
34
31
30
32
32
28
27
25
23
25
25
23
15
19
21
23
24
29
25
36
58
72
89
96
91
91
91
91
91
91
87
82
76
73
68
64
63
60
61
59
59
57
57
58
53
51
46
45
46
45
40
35
34
33
34
30
22
26
26
25
21
21
22
22
22
23
21
20
25
40
58
74
83
91
89
89
89
89
89
89
89
84
74
72
67
67
64
61
58
57
56
57
59
56
53
48
47
44
42
43
42
43
34
32
32
29
33
31
30
25
27
28
30
39
53
66
84
90
89
89
89
89
89
89
87
81
76
70
67
67
67
62
65
64
63
60
58
56
54
54
51
44
42
43
41
38
37
36
34
32
33
36
34
34
30
30
30
36
44
63
78
89
93
94
95
90
90
90
90
90
90
82
76
75
74
70
65
65
66
67
67
67
63
60
60
55
53
52
50
41
41
39
42
39
36
38
34
31
32
31
29
29
30
40
58
75
87
95
99
96
96
96
96
96
96
92
91
87
81
79
77
78
71
67
69
70
66
65
62
57
52
50
47
48
45
45
45
41
41
39
40
42
39
36
35
34
31
33
41
52
68
86
93
96
95
91
91
91
91
91
91
86
85
82
81
73
68
66
68
70
68
67
66
65
65
59
55
55
54
57
49
48
45
44
42
42
45
44
42
40
35
34
42
55
70
87
94
99
97
97
97
97
97
97
91
92
90
87
83
78
76
72
69
67
68
69
67
63
60
60
56
53
51
48
46
46
45
45
43
43
43
40
42
35
33
36
35
37
49
66
82
96
98
102
101
92
92
92
92
92
92
89
88
83
80
75
71
72
72
70
66
68
66
70
65
59
56
56
52
51
50
49
45
46
41
42
41
40
44
44
36
32
31
28
36
44
57
72
87
102
100
100
100
100
100
100
93
92
92
91
82
78
75
73
70
73
68
70
72
68
67
62
59
57
56
54
48
45
46
43
39
42
42
39
35
36
34
33
33
36
43
55
66
84
89
95
97
93
93
93
93
93
93
90
83
82
80
77
72
70
70
69
68
65
63
62
57
55
55
55
50
45
43
41
43
43
42
39
43
41
40
36
35
36
30
31
37
57
73
87
94
97
97
96
96
96
96
96
96
92
84
83
82
80
77
71
67
66
65
69
66
63
62
57
57
56
55
52
49
46
46
43
43
38
39
40
36
33
29
27
35
35
33
39
55
73
87
94
96
97
94
94
94
94
94
94
91
88
88
84
77
73
71
72
71
71
67
66
64
64
61
55
50
46
47
48
45
46
42
40
37
36
38
38
37
35
34
31
34
35
37
48
67
84
93
97
98
93
93
93
93
93
93
93
86
82
81
79
77
76
71
68
69
67
65
66
63
59
55
53
54
53
53
47
47
46
45
41
40
41
41
38
35
37
37
48
67
80
92
97
97
94
94
94
94
94
94
94
91
92
90
87
80
77
78
76
75
73
71
72
68
69
63
58
56
54
52
52
52
49
50
42
38
36
38
36
37
35
39
38
42
48
71
91
98
101
101
101
98
98
98
98
98
98
95
90
86
85
83
78
74
74
73
75
73
67
67
62
58
54
56
56
52
52
46
47
46
44
43
42
43
41
40
34
32
34
41
53
79
95
98
99
94
94
94
94
94
94
89
90
91
86
85
80
76
75
71
75
73
73
73
66
62
60
59
55
52
52
49
46
46
44
43
39
41
40
43
37
36
39
50
71
82
91
97
96
96
96
96
96
96
92
89
84
81
81
77
75
70
72
71
69
66
65
64
65
61
57
59
54
52
48
49
46
45
41
35
36
36
36
38
35
36
36
40
50
71
88
98
98
95
95
95
95
95
95
92
95
96
92
87
81
81
78
71
70
70
70
68
67
63
59
54
50
49
49
49
47
43
40
38
38
42
40
37
38
35
31
31
33
46
63
77
87
95
95
91
91
91
91
91
91
87
83
84
86
82
77
74
70
70
73
70
66
65
63
62
59
58
53
47
41
40
41
38
35
38
39
35
31
31
31
27
28
24
25
35
53
70
81
87
93
93
88
88
88
88
88
88
83
81
77
74
72
69
67
67
63
64
63
62
61
56
54
52
53
49
45
43
40
36
34
34
36
37
35
33
30
29
25
26
32
52
67
80
86
88
87
84
84
84
84
84
84
81
82
79
75
71
67
70
69
67
68
66
65
59
54
50
45
43
42
42
42
36
35
35
35
33
30
29
34
34
29
28
28
40
48
63
78
88
92
89
89
89
89
89
89
86
80
80
77
73
73
72
67
64
66
64
63
63
60
59
58
50
47
46
42
43
41
38
35
32
32
33
33
34
32
26
23
27
26
29
50
62
76
84
88
90
88
88
88
88
88
88
84
81
80
77
77
75
69
68
63
60
62
61
61
65
61
58
51
49
49
45
47
42
41
42
40
39
34
35
32
33
47
65
74
87
88
88
88
83
83
83
83
83
83
77
78
76
75
77
70
67
68
72
68
68
63
62
59
56
56
50
49
46
43
39
39
41
38
35
34
36
33
29
33
44
58
69
90
98
100
100
100
100
100
100
96
92
90
88
89
83
78
75
73
73
68
65
69
68
64
60
59
56
53
52
53
51
45
46
44
45
45
42
39
36
38
34
32
32
33
46
62
83
94
97
95
95
95
95
95
95
86
83
87
90
89
88
81
76
74
70
68
71
69
67
64
61
60
55
50
48
48
47
46
42
39
38
37
36
34
34
33
32
30
33
45
64
78
93
97
98
96
96
96
96
96
96
94
92
88
84
83
74
73
73
70
67
70
68
64
61
61
59
57
51
49
45
46
47
46
44
39
42
40
36
36
35
36
28
26
27
30
39
57
73
89
97
95
95
95
95
95
95
94
89
89
82
79
76
78
77
76
71
67
67
69
66
63
62
56
51
47
46
45
45
43
44
38
38
36
36
39
41
32
30
29
27
28
37
49
69
82
86
87
87
84
84
84
84
84
84
81
81
78
76
72
68
67
66
70
70
66
63
62
59
58
54
47
41
42
38
36
33
34
32
32
30
29
31
30
29
26
29
26
31
37
54
70
85
94
93
93
93
93
93
93
87
82
75
73
70
64
65
64
62
58
59
60
60
56
57
54
49
48
47
47
45
41
35
33
38
38
32
30
30
29
28
33
41
55
69
83
86
86
85
85
85
85
85
85
79
74
68
65
60
59
57
60
58
58
61
57
56
57
52
46
46
42
38
37
33
31
31
28
31
34
32
32
32
32
40
54
64
85
89
88
88
88
88
88
88
86
86
81
80
75
71
66
66
65
64
66
64
62
60
58
57
53
45
49
47
45
40
37
43
41
34
32
31
32
29
29
30
35
54
64
78
88
97
94
94
94
94
94
94
91
86
84
82
78
75
70
66
65
64
68
65
63
61
56
52
47
48
43
46
43
44
41
36
36
37
38
37
32
32
32
31
38
51
67
82
90
91
88
88
88
88
88
88
84
82
81
77
72
69
64
65
64
65
63
64
63
61
60
54
53
50
48
50
44
42
40
40
39
33
30
33
35
34
36
46
58
76
83
93
92
88
88
88
88
88
88
87
82
81
77
75
73
70
67
66
60
60
59
58
58
57
57
48
45
43
43
43
42
38
42
40
41
36
37
38
37
35
33
34
29
35
51
67
83
93
100
100
96
96
96
96
96
96
94
88
82
80
79
76
74
73
75
67
69
68
63
64
57
53
54
52
50
47
45
41
38
38
36
33
34
37
34
33
33
34
32
28
35
45
61
82
94
99
98
96
96
96
96
96
96
94
85
84
81
79
74
70
68
70
72
68
65
65
64
58
53
56
54
54
47
45
43
43
42
42
36
34
35
35
35
33
29
34
44
60
76
90
98
98
98
98
98
98
98
93
90
83
76
74
71
73
69
67
68
65
65
67
64
59
56
53
47
40
41
42
40
40
41
41
43
41
46
43
42
43
50
67
76
82
86
86
80
80
80
80
80
80
75
72
65
60
57
54
56
57
60
61
56
56
59
58
52
52
51
49
45
42
42
40
36
32
31
31
35
33
31
42
54
70
85
100
100
103
98
98
98
98
98
98
94
92
87
84
82
82
75
72
72
73
73
71
68
69
61
59
55
51
46
47
48
48
45
41
43
41
44
39
43
55
65
85
94
97
96
97
93
93
93
93
93
93
87
83
78
76
72
69
71
69
68
70
69
66
68
69
61
59
51
53
51
52
52
48
47
49
60
72
89
100
101
96
96
96
96
96
96
93
92
86
83
79
75
73
68
71
68
71
72
65
62
63
59
55
56
54
53
47
48
45
41
38
38
39
43
55
75
91
102
103
102
102
102
102
102
102
97
91
90
88
87
80
77
73
73
75
73
73
72
67
62
59
58
58
57
53
49
50
47
45
39
43
43
54
68
82
94
96
96
96
96
96
96
95
94
89
89
84
81
73
68
68
64
64
62
57
58
55
55
52
54
47
48
45
41
42
43
37
40
37
35
35
35
40
53
68
76
88
91
89
89
89
89
89
89
80
80
76
73
70
65
63
65
61
63
63
58
59
57
56
47
46
44
39
40
37
35
35
33
29
30
27
26
29
28
32
42
57
71
82
91
88
88
88
88
88
88
84
79
77
73
65
61
60
60
57
57
55
54
49
49
48
47
45
47
45
43
36
35
33
33
35
31
27
27
30
34
41
52
70
79
82
82
77
77
77
77
77
77
73
66
63
59
57
58
56
55
53
57
59
53
51
51
53
50
47
43
39
35
34
31
28
30
33
31
32
46
58
73
85
87
86
86
86
86
86
86
82
77
74
72
63
61
61
62
60
60
58
56
54
52
49
48
46
40
36
38
37
34
34
34
31
30
31
30
36
44
59
73
85
86
89
83
83
83
83
83
83
78
75
71
67
64
63
63
61
57
57
58
58
53
53
49
46
45
42
43
42
39
37
36
34
32
30
29
33
39
53
62
78
79
84
81
81
81
81
81
81
77
75
73
71
66
65
57
57
60
58
59
56
52
49
49
46
44
42
38
35
34
30
29
32
29
33
36
48
64
78
86
92
86
86
86
86
86
86
82
76
69
70
66
62
58
56
56
58
58
56
55
51
47
46
42
43
41
44
42
39
33
32
37
48
64
73
83
84
85
79
79
79
79
79
79
77
72
68
63
57
57
56
60
57
57
58
56
52
49
52
46
45
42
38
42
38
34
36
46
60
76
85
89
88
83
83
83
83
83
83
75
69
68
67
65
58
58
58
57
56
61
60
56
49
47
49
45
42
39
38
38
31
31
34
38
53
65
79
87
90
88
88
88
88
88
88
83
77
72
71
66
66
61
58
60
57
57
62
57
49
47
48
45
41
41
44
42
37
30
34
35
35
42
62
77
86
91
87
87
87
87
87
87
86
78
74
75
69
69
63
61
61
64
61
59
57
55
55
54
49
45
40
39
38
39
40
37
36
34
36
32
36
40
56
73
83
88
88
83
83
83
83
83
83
81
80
77
75
74
69
65
64
64
65
63
64
59
54
50
48
48
47
43
42
39
38
36
34
36
33
34
35
39
36
37
38
55
77
90
104
108
106
103
103
103
103
103
103
99
96
94
87
84
80
79
74
71
72
71
65
60
59
59
57
53
52
50
51
48
44
43
43
43
42
38
40
40
36
36
35
36
32
40
57
74
88
95
100
98
98
98
98
98
98
95
88
82
81
77
75
72
69
69
66
66
68
64
63
58
57
52
48
47
45
44
43
42
39
36
37
37
35
33
33
35
36
32
35
41
60
80
93
97
98
97
97
97
97
97
97
90
82
83
78
73
68
66
66
64
64
66
68
67
62
58
56
53
51
49
46
44
41
44
43
38
38
36
36
35
32
40
61
76
85
96
97
94
94
94
94
94
94
91
88
82
79
74
71
71
68
66
66
65
66
61
62
60
57
55
51
47
46
45
46
41
37
37
40
37
38
36
35
38
47
66
79
91
98
97
97
97
97
97
97
95
91
88
85
82
80
74
72
70
69
68
66
68
66
64
63
60
59
58
55
53
52
49
47
44
42
43
42
39
34
32
36
50
66
81
95
99
97
97
97
97
97
97
93
90
86
86
83
84
77
73
73
69
74
70
68
67
66
64
57
57
59
52
48
49
49
45
41
42
47
44
41
41
41
39
40
43
57
71
89
96
99
99
98
98
98
98
98
98
89
88
83
82
79
72
70
69
69
70
68
68
71
65
64
65
61
61
55
51
48
47
45
42
42
40
40
39
39
41
46
61
71
83
94
99
99
99
99
99
99
99
91
91
83
78
79
78
80
77
73
73
71
70
68
65
66
62
59
57
54
50
48
47
47
47
44
43
44
47
