67
65
63
61
62
68
81
95
105
106
106
105
103
103
103
103
103
103
100
98
97
94
93
86
83
82
83
82
82
80
79
76
74
73
72
71
70
70
70
68
66
65
64
66
62
66
76
86
97
99
98
98
97
96
95
94
91
91
91
91
91
91
87
84
82
81
81
81
80
81
78
74
70
66
67
64
61
60
58
58
57
55
54
51
50
48
48
47
45
44
43
43
43
42
42
43
41
39
40
51
68
81
85
85
85
82
82
82
82
82
82
79
78
78
77
74
69
67
66
66
67
67
67
65
65
64
62
63
60
59
58
57
59
55
53
52
51
50
48
48
47
46
45
43
43
48
63
75
85
87
84
84
84
84
84
84
83
80
83
80
78
77
73
71
68
65
65
64
64
62
61
59
58
56
54
53
52
51
50
53
49
46
43
42
42
39
37
33
32
30
28
25
24
22
23
29
44
67
83
87
87
84
84
84
84
84
84
81
80
79
81
78
72
68
66
64
67
63
62
62
60
57
55
52
50
48
46
43
42
41
40
38
38
35
34
34
32
34
32
29
30
27
29
26
30
46
71
82
88
88
88
88
88
88
88
85
81
78
75
74
70
67
63
66
63
62
63
60
63
60
57
53
51
49
50
45
42
40
40
37
37
35
36
34
31
31
29
29
29
31
28
25
29
46
64
85
89
89
87
87
87
87
87
87
83
79
76
75
73
70
68
63
60
60
61
61
60
59
57
57
54
55
51
47
46
43
46
39
37
36
34
32
30
29
27
24
21
21
20
19
19
22
34
54
68
81
85
87
80
80
80
80
80
80
74
71
70
71
65
60
56
55
54
53
53
51
49
48
46
44
43
43
42
44
40
39
37
36
38
38
34
33
33
32
33
29
26
24
23
25
37
58
74
84
85
84
84
84
84
84
84
77
73
69
70
69
65
63
62
62
64
61
60
59
55
54
51
49
46
45
43
42
41
40
39
38
35
34
34
35
34
37
33
31
32
29
33
35
49
67
81
88
90
90
90
90
90
90
85
81
76
73
70
68
65
62
60
61
60
59
60
58
61
58
54
51
49
50
50
47
44
42
40
39
38
37
35
33
33
32
30
30
28
31
34
46
64
81
90
95
89
89
89
89
89
89
83
80
76
77
71
67
64
64
62
62
62
61
60
58
56
52
51
50
49
51
46
44
44
42
46
40
37
36
35
33
31
30
30
29
33
44
62
80
91
92
89
89
89
89
89
89
83
80
80
78
80
74
68
67
66
70
70
67
66
62
60
59
56
54
52
50
48
47
45
46
45
46
46
42
42
40
43
41
37
36
37
35
39
50
68
83
93
93
91
91
91
91
91
91
86
80
76
73
72
69
66
65
67
71
69
67
67
64
66
60
58
58
54
57
54
52
50
48
44
44
42
43
42
39
37
36
36
49
62
83
91
95
94
89
89
89
89
89
89
88
83
78
75
72
67
66
66
67
67
66
65
64
62
60
59
57
55
53
53
51
54
52
51
51
50
51
50
45
43
42
41
46
60
80
99
105
105
103
103
103
103
103
103
99
94
91
92
89
83
82
83
83
87
85
84
84
84
86
81
76
73
71
67
65
61
60
59
59
58
57
55
56
60
75
88
100
107
106
104
95
95
95
95
95
95
87
84
80
81
78
76
77
76
75
74
72
71
69
67
62
59
56
57
56
60
57
57
55
54
53
48
50
59
73
80
85
87
83
83
83
83
83
83
68
53
31
13
1
0
0
2
6
13
21
25
28
27
25
20
14
11
11
14
21
27
33
37
38
39
39
40
40
42
42
43
47
56
71
79
85
88
88
88
88
88
88
88
88
85
83
84
82
81
77
74
72
72
73
75
76
76
75
73
71
68
65
63
60
61
58
54
51
48
52
55
61
66
68
69
67
67
67
67
67
67
65
64
63
63
62
60
58
55
52
51
53
55
56
55
56
55
54
53
52
51
50
47
44
44
43
40
38
37
36
38
44
54
61
65
65
63
63
63
63
63
63
61
60
60
60
60
59
56
53
53
51
53
51
50
48
45
44
43
42
41
38
37
36
35
34
29
30
32
28
26
26
33
53
64
72
75
73
73
73
73
73
73
73
69
65
65
64
61
58
56
54
53
53
53
52
53
54
53
58
55
52
51
50
52
50
47
45
45
41
39
40
49
62
74
80
82
80
80
80
80
80
80
76
73
71
70
68
66
63
60
57
52
50
52
52
53
46
41
41
38
37
35
34
34
33
32
30
27
25
24
25
24
21
20
27
36
49
54
56
55
55
55
55
55
55
54
58
56
57
56
54
51
48
45
43
44
44
44
45
46
46
46
49
47
47
48
48
50
50
50
49
48
51
57
64
72
78
80
79
79
79
79
79
79
78
76
75
74
70
68
68
70
71
73
71
68
65
63
62
62
60
59
56
53
51
50
50
48
47
48
52
58
64
72
77
80
82
82
82
83
84
82
82
82
82
82
82
82
81
78
79
74
70
66
62
59
60
61
61
60
57
55
54
51
46
40
37
41
50
61
71
83
77
72
71
71
74
75
76
77
76
66
62
60
61
62
59
54
51
49
45
37
41
30
11
0
0
0
0
0
0
0
0
4
12
19
23
25
26
28
31
34
36
38
40
41
42
44
47
50
51
52
54
54
54
54
54
54
54
55
53
52
52
51
51
50
50
51
52
52
51
53
62
69
78
83
84
84
83
80
80
77
74
72
69
68
65
63
62
62
61
61
60
60
59
58
55
54
53
51
51
50
49
47
47
55
64
72
77
77
77
77
77
77
77
77
75
74
71
69
67
65
63
60
58
56
56
56
56
57
56
53
55
53
51
49
49
48
48
46
44
48
55
67
74
76
76
73
73
73
73
73
73
71
69
69
67
65
63
60
55
53
52
53
54
51
51
50
48
49
45
42
41
40
38
34
35
37
45
61
81
94
99
98
95
95
95
95
95
95
88
85
82
81
78
79
71
65
61
60
63
62
61
58
54
50
49
47
45
44
41
39
39
38
37
39
55
72
85
94
97
96
92
92
92
92
92
92
86
84
84
81
81
72
66
61
58
56
57
57
57
55
53
51
50
48
45
47
46
43
41
40
38
40
37
45
66
78
99
99
98
90
90
90
90
90
90
87
85
84
82
79
76
70
65
63
63
63
63
68
64
61
60
55
57
53
50
46
43
41
39
38
38
37
36
35
34
38
54
70
87
97
99
98
93
93
93
93
93
93
95
90
88
85
81
79
73
68
66
65
65
65
64
63
60
57
56
54
51
50
47
49
47
46
44
45
44
43
39
38
38
36
39
35
31
40
60
77
91
96
94
94
94
94
94
94
88
83
80
77
75
72
69
67
61
59
60
59
63
59
55
53
51
53
49
44
43
39
38
35
33
32
31
29
29
28
27
29
30
35
34
32
34
45
72
91
99
103
102
97
97
97
97
97
97
90
86
84
83
81
77
73
72
69
67
67
66
64
64
61
60
58
52
49
48
45
44
42
38
35
35
33
32
31
29
28
28
29
31
34
37
41
40
39
43
62
82
104
109
106
103
103
103
103
103
103
97
98
94
91
89
86
82
77
74
74
73
72
72
70
69
68
65
67
64
60
58
56
57
54
50
50
49
50
49
46
43
43
40
39
39
39
36
34
33
38
53
72
87
99
98
98
98
98
98
98
92
86
84
83
83
79
76
74
70
67
66
66
67
67
65
64
62
60
59
56
54
54
52
50
51
51
49
48
48
47
49
45
44
42
40
40
47
62
77
89
94
95
94
94
94
94
94
94
92
91
90
92
88
85
82
78
79
75
75
74
75
76
73
70
69
66
65
63
62
61
60
58
57
55
55
56
55
59
56
54
52
48
51
52
61
76
93
102
104
101
101
101
101
101
101
97
94
93
94
93
91
88
84
80
78
77
77
79
81
79
77
74
74
71
71
66
64
64
63
60
57
57
56
55
55
54
52
51
49
48
48
47
49
59
73
95
102
104
104
100
100
100
100
100
100
100
96
95
93
91
87
82
80
80
80
79
78
78
76
74
74
75
72
68
67
64
67
64
62
60
59
62
60
57
56
55
52
51
50
50
49
48
46
47
56
72
88
104
104
103
101
99
99
99
99
99
99
99
101
100
98
97
91
87
84
82
82
84
84
82
81
78
77
74
70
68
66
66
66
65
61
60
59
57
59
54
51
50
49
46
45
42
42
42
40
40
38
40
47
62
78
87
91
91
88
88
88
88
88
88
89
86
85
86
83
83
78
73
72
70
70
70
70
69
67
65
63
60
60
59
59
61
56
53
53
52
55
53
50
47
47
46
47
43
42
41
39
38
37
38
43
56
70
80
85
85
84
84
84
84
84
84
86
84
84
83
83
83
79
73
70
69
69
68
68
67
66
64
61
59
56
54
53
52
50
49
48
48
48
50
47
45
46
42
46
44
41
40
38
36
36
34
35
33
31
31
35
47
61
74
79
79
79
79
79
79
79
79
79
79
83
82
80
79
78
77
71
67
65
67
65
65
63
60
57
56
54
50
47
44
42
47
40
37
32
29
31
25
22
19
18
19
19
11
12
9
12
11
10
12
11
11
11
13
23
42
60
77
86
83
83
83
83
83
83
77
75
71
74
70
67
65
62
59
57
57
58
59
58
55
53
52
49
46
45
45
44
43
42
45
42
40
38
37
41
38
36
34
32
29
29
30
33
46
63
78
87
89
88
85
85
85
85
85
85
87
85
86
86
86
86
78
70
69
70
71
73
69
66
63
61
61
58
56
54
52
49
48
47
47
44
47
46
40
39
40
38
39
35
32
32
30
35
44
59
78
89
90
88
88
88
88
88
88
86
83
84
84
85
85
81
78
73
74
72
72
74
73
75
70
66
64
61
60
57
55
51
50
48
48
47
45
42
40
41
50
69
84
94
103
98
98
98
98
98
98
94
92
90
94
94
90
84
79
73
72
72
75
76
76
76
72
68
67
65
67
63
60
59
59
59
60
55
54
53
52
53
48
51
63
82
98
106
107
105
103
103
104
106
106
104
104
104
104
104
104
101
99
92
89
89
90
94
90
87
87
84
85
81
76
72
70
67
66
64
64
62
61
60
58
57
58
56
60
56
52
51
51
65
76
92
104
106
104
103
103
104
106
105
104
101
101
101
101
101
101
97
93
90
88
88
88
88
87
90
84
79
76
74
74
73
69
66
64
63
61
60
57
56
54
52
52
50
48
47
49
50
46
44
45
43
45
42
41
40
37
40
39
47
65
81
89
93
92
91
90
89
90
91
91
89
89
89
89
89
89
86
86
79
75
76
76
79
76
73
71
68
67
62
60
58
56
54
53
53
51
49
48
47
47
45
45
42
45
42
40
39
38
40
37
35
33
33
31
29
27
27
27
26
31
51
66
76
81
81
79
79
79
79
79
79
76
75
75
77
80
75
71
67
64
66
63
62
61
60
59
57
55
53
50
47
46
44
43
41
43
43
39
37
38
36
39
35
33
32
30
33
29
27
25
24
25
35
54
64
70
71
69
69
69
69
69
69
66
63
62
60
64
59
55
54
53
57
56
54
54
53
52
48
44
43
42
40
39
36
35
36
35
34
33
31
31
31
33
32
28
28
34
48
64
70
76
77
74
74
74
74
74
74
70
68
67
66
66
64
62
59
57
57
57
59
59
59
58
56
59
53
50
50
48
50
47
44
43
41
41
39
38
39
38
37
36
34
39
50
66
82
85
85
85
82
82
82
82
82
82
85
83
83
84
83
81
75
70
68
66
66
67
67
66
65
62
60
58
56
56
54
56
54
50
50
49
50
48
45
43
44
42
41
39
39
45
61
74
84
89
88
85
85
85
85
85
85
83
83
84
85
85
85
81
75
73
76
76
80
76
73
73
70
66
63
59
56
53
50
49
47
46
44
43
40
40
37
38
36
40
33
28
27
24
28
21
17
31
60
95
112
118
116
112
108
107
106
107
106
104
104
94
94
94
94
94
94
89
87
86
92
89
86
83
81
81
80
74
70
70
68
64
61
60
59
58
55
53
53
51
49
52
49
46
44
43
42
44
40
38
39
36
32
36
50
70
90
104
108
106
103
103
103
103
103
103
101
102
104
105
105
103
99
96
92
91
91
90
95
90
87
85
80
76
74
71
71
69
66
63
63
63
60
58
57
54
53
52
48
52
47
44
41
38
40
39
34
31
31
29
32
42
63
79
92
95
95
92
92
92
92
92
92
90
89
97
95
93
92
87
87
86
82
82
84
83
86
81
76
72
69
63
62
61
59
56
54
51
50
50
49
49
48
41
41
41
38
38
33
31
29
28
27
24
23
22
19
21
32
48
71
80
83
82
76
76
76
76
76
76
74
73
73
76
71
67
62
59
64
61
60
60
60
57
52
50
48
46
43
41
41
39
37
35
36
34
33
34
31
35
33
29
28
28
29
28
24
24
36
55
70
81
85
83
83
83
83
83
83
78
74
72
70
70
67
69
64
60
60
62
64
68
65
61
60
57
59
53
48
42
40
37
38
40
36
36
34
34
32
32
40
52
75
81
85
85
81
81
81
81
81
81
84
80
77
78
78
75
71
67
65
66
67
67
66
65
62
60
58
58
55
55
53
57
52
47
47
44
47
47
43
41
38
35
40
55
68
83
92
92
91
87
87
87
87
87
87
86
88
96
94
93
88
85
83
81
77
77
78
80
78
73
70
68
65
63
60
60
57
56
54
51
50
49
49
50
50
45
44
44
41
42
37
36
35
31
33
30
29
26
22
21
24
34
54
72
84
88
88
88
88
88
88
88
85
84
83
90
87
85
84
78
78
73
70
69
70
70
68
65
61
60
59
56
54
51
50
48
45
44
43
42
41
44
40
35
34
33
36
34
33
29
26
24
21
21
32
53
66
76
80
78
78
78
78
78
78
73
70
71
70
69
67
66
62
63
59
59
60
60
61
57
53
46
45
44
41
40
38
36
35
35
33
33
33
33
34
27
27
25
25
29
25
21
22
24
35
48
63
73
76
74
74
74
74
74
74
70
68
68
68
68
68
66
62
60
59
63
60
59
59
56
58
54
49
47
45
43
39
37
37
37
35
33
32
32
30
29
29
27
27
27
27
30
27
23
22
24
21
24
21
29
50
69
80
83
82
81
79
79
79
79
79
79
77
78
80
81
79
78
74
69
66
65
65
69
65
64
64
60
63
57
52
51
50
45
44
44
43
42
41
40
40
37
37
35
39
36
31
30
29
33
30
26
26
25
26
23
22
29
46
66
80
87
87
85
85
85
85
85
85
84
80
81
82
83
83
85
78
73
71
72
72
75
72
69
69
63
61
59
57
53
51
49
47
46
44
43
41
40
38
38
39
38
37
33
33
33
30
33
28
26
23
24
28
43
64
79
87
88
84
84
84
84
84
84
81
78
77
78
84
78
75
74
71
75
72
71
71
69
73
69
64
60
58
56
54
53
51
50
47
47
46
45
44
42
46
42
38
37
36
39
37
35
33
34
33
38
53
74
89
96
97
95
94
93
93
92
93
92
89
89
89
89
89
89
86
87
83
81
82
82
82
83
77
75
73
69
65
63
62
60
58
55
54
53
52
51
48
46
44
44
44
44
46
40
38
37
35
39
38
47
67
81
93
98
96
96
96
96
96
96
92
91
90
91
92
91
89
86
87
80
78
80
80
85
81
77
73
70
72
70
63
60
58
58
57
55
55
54
53
50
49
48
47
46
49
46
42
40
38
41
49
63
80
95
99
97
97
97
97
97
97
95
92
91
91
92
93
91
86
83
81
81
81
84
86
84
85
79
74
73
71
73
67
65
63
60
60
57
55
52
51
51
49
47
47
44
42
42
40
39
39
37
39
37
44
59
79
98
100
99
98
98
98
98
98
98
95
94
96
98
98
99
94
89
87
85
85
84
89
85
82
80
77
78
73
68
65
64
63
63
60
58
55
52
49
47
45
44
42
41
39
37
37
38
38
35
33
31
30
30
32
35
53
70
85
88
89
86
86
86
86
86
86
84
83
84
86
87
86
81
77
72
72
72
74
75
78
73
68
68
64
66
60
57
57
55
52
52
49
49
48
46
44
43
42
41
41
41
37
37
38
36
39
36
34
33
31
36
45
61
81
91
95
95
92
92
92
92
92
92
90
90
92
95
95
93
90
83
86
83
82
81
82
83
84
79
75
73
69
72
68
64
60
59
57
55
53
51
49
48
47
47
45
46
45
46
43
40
41
39
41
36
34
32
30
29
43
63
80
91
94
94
91
91
91
91
91
91
90
89
89
90
92
92
89
83
84
78
76
78
77
80
76
72
68
66
62
60
58
56
55
55
53
51
49
47
46
49
46
42
42
42
44
41
37
35
36
34
34
35
48
66
81
89
92
90
87
87
87
87
87
87
84
83
85
85
85
79
80
79
75
75
76
76
79
74
72
70
67
68
63
60
58
54
52
52
50
49
47
45
44
43
41
42
41
43
38
36
35
33
36
32
32
44
62
78
89
94
94
91
91
91
91
91
91
90
90
92
94
94
93
88
82
79
79
78
84
81
79
77
74
73
70
65
61
59
57
55
54
52
51
48
47
46
45
42
41
43
41
38
35
36
37
35
31
29
30
29
35
42
59
77
90
91
90
90
90
90
90
90
84
82
81
80
81
83
81
78
76
75
72
70
70
71
74
68
65
63
59
60
56
53
50
49
46
44
43
42
41
39
39
38
36
37
37
39
35
32
32
34
54
66
80
90
93
91
91
91
91
91
91
90
87
87
87
88
87
84
82
77
73
72
72
73
74
74
75
72
66
61
61
60
59
56
51
48
46
44
44
42
42
39
37
37
35
34
32
33
33
28
27
27
27
27
23
26
44
68
89
90
90
86
86
86
86
86
86
82
79
79
79
80
81
79
73
69
66
66
67
73
68
66
65
62
65
60
56
53
51
55
51
47
45
43
42
41
40
37
35
34
32
31
31
30
30
33
29
25
30
44
69
81
86
86
83
83
83
83
83
83
79
74
73
73
74
73
70
67
64
64
64
64
64
65
62
60
62
60
55
51
52
49
50
46
42
42
40
38
37
34
34
33
33
32
31
30
28
31
32
34
55
76
88
98
93
93
93
93
93
93
89
88
87
91
87
87
87
83
78
75
73
73
73
73
72
72
71
69
65
67
60
57
57
55
58
56
52
51
49
49
46
44
42
40
38
36
33
33
29
27
25
25
32
48
67
89
98
98
94
94
94
94
94
94
92
91
90
88
89
89
84
78
78
77
79
80
78
77
76
77
74
72
69
66
65
66
64
64
58
55
56
53
57
48
46
43
42
40
39
37
37
33
32
33
46
70
86
97
106
102
102
102
102
102
102
97
97
95
99
98
97
96
90
89
85
82
80
78
77
77
76
74
71
69
67
65
63
63
59
61
58
54
54
54
55
54
50
46
46
43
42
41
39
36
35
32
32
45
61
78
89
95
97
96
92
92
92
92
92
92
94
93
90
88
88
84
84
76
73
72
72
73
72
70
68
66
63
61
59
57
52
51
49
47
47
47
45
47
43
39
38
37
41
38
34
32
29
27
32
43
61
82
89
89
86
86
86
86
86
86
83
80
80
83
79
75
75
71
75
73
71
70
71
73
70
65
62
59
56
54
52
51
48
47
45
44
43
44
42
46
42
40
39
39
40
38
36
38
52
68
85
95
98
97
95
95
95
95
95
95
92
92
94
96
96
95
90
85
83
83
84
86
81
79
79
75
77
74
68
64
61
58
55
54
54
50
49
48
45
43
42
40
39
37
36
37
34
38
33
28
27
30
50
68
83
93
94
90
90
90
90
90
90
88
87
86
87
89
89
86
83
78
76
80
76
75
76
75
78
73
68
64
63
60
62
56
52
51
49
47
44
43
41
39
39
39
36
35
36
39
36
33
44
63
79
92
94
93
93
93
93
93
93
90
86
84
84
85
86
83
79
76
75
75
75
77
76
73
72
72
69
71
65
61
61
59
61
57
55
54
52
50
49
48
46
45
45
43
42
39
38
38
49
61
80
95
101
108
103
103
103
103
103
103
101
100
101
106
107
102
97
92
89
88
87
88
89
88
86
84
83
81
76
79
76
73
70
68
66
66
63
59
60
58
60
56
53
52
50
48
47
47
45
45
44
45
53
66
85
97
105
102
102
102
102
102
102
100
98
98
106
103
102
101
96
91
86
86
84
85
85
84
82
79
78
76
75
72
70
69
66
67
61
60
59
57
59
56
51
49
47
46
43
42
41
39
37
35
33
32
31
29
35
44
60
78
86
93
90
90
90
90
90
90
87
86
86
87
88
86
81
75
73
71
70
70
70
71
70
68
67
65
63
62
60
57
53
54
51
53
48
47
46
44
46
42
39
38
35
34
33
36
47
63
76
82
83
82
82
79
79
79
79
79
79
84
81
82
81
76
77
72
69
68
68
67
66
64
63
61
59
54
53
51
50
49
47
45
45
44
43
45
41
37
36
35
35
34
31
30
29
28
27
26
25
23
23
28
43
62
77
82
88
84
84
84
84
84
84
78
77
78
80
85
81
78
74
69
71
68
67
67
66
65
62
61
60
58
55
52
49
47
48
46
50
45
40
40
38
42
38
32
32
31
35
33
29
26
22
21
23
33
48
64
75
78
77
77
77
77
77
77
73
73
71
75
73
73
70
66
66
64
61
61
62
60
59
57
55
52
51
48
46
46
45
44
42
41
41
41
39
41
39
35
33
34
34
34
32
32
28
26
24
23
24
35
50
66
77
83
82
80
80
80
80
80
80
82
82
80
80
80
80
81
73
69
69
68
73
71
66
64
61
58
55
52
51
48
47
44
43
42
42
41
44
40
37
37
34
37
34
30
30
28
28
26
24
22
22
19
20
29
47
66
74
77
78
76
76
76
76
76
76
75
72
76
75
74
71
70
66
65
62
62
62
61
61
59
57
56
53
51
50
48
48
46
45
43
41
40
41
40
39
36
34
34
33
37
31
29
28
27
25
26
38
55
69
79
80
80
77
77
77
77
77
77
75
74
77
74
73
71
68
71
65
63
64
64
68
65
60
59
57
52
51
50
47
47
44
42
42
40
41
41
43
40
36
36
35
38
36
32
30
29
29
29
33
49
66
79
85
86
84
84
84
84
84
84
82
80
79
79
80
80
80
77
73
70
69
70
71
75
70
66
64
61
58
55
54
52
50
48
46
45
44
43
43
41
40
39
38
38
41
39
38
37
34
38
39
49
62
79
90
93
90
90
90
90
90
90
86
84
82
81
82
82
80
78
79
74
73
75
74
78
74
69
67
62
63
60
53
50
49
46
44
42
41
39
39
38
35
34
34
34
36
33
31
30
32
30
32
34
49
67
79
87
88
87
86
84
84
84
84
84
84
83
84
86
87
85
81
77
77
77
78
78
80
77
74
74
71
72
68
64
62
60
59
58
56
56
55
54
52
52
50
47
46
45
44
43
44
41
43
40
37
38
45
68
77
90
96
97
95
95
95
95
95
95
93
91
92
93
94
91
87
82
78
77
81
79
78
77
75
75
72
68
66
66
64
63
60
58
55
52
50
49
49
48
46
46
44
44
44
45
47
48
45
44
45
42
49
58
73
87
93
93
93
93
93
93
93
91
88
84
84
85
87
85
83
78
74
73
74
76
77
76
77
72
68
67
63
65
61
58
57
54
52
51
49
48
47
46
43
40
40
40
37
37
37
36
36
34
39
33
31
33
47
64
79
87
89
88
84
84
84
84
84
84
84
83
84
86
86
84
81
78
76
75
79
77
74
73
71
71
69
63
62
60
59
59
55
53
52
49
47
47
46
45
43
42
41
39
37
37
36
39
34
32
31
30
34
29
26
26
29
45
60
76
84
83
81
81
81
81
81
81
79
77
77
78
81
81
77
74
72
68
72
69
68
69
68
70
67
63
60
56
54
52
51
49
48
46
44
43
42
42
41
41
39
38
36
34
37
34
33
32
32
31
29
27
30
39
56
70
82
83
80
80
80
80
80
80
77
76
74
75
76
73
75
71
66
66
67
67
70
66
64
64
61
63
58
56
53
51
49
47
47
45
45
44
42
41
40
40
39
40
36
34
35
32
36
31
29
29
32
44
61
77
86
87
86
85
83
83
83
83
83
83
83
83
84
84
82
79
76
74
77
74
73
72
72
73
73
66
63
60
57
55
54
53
51
50
49
48
48
45
43
45
44
41
40
40
42
39
35
34
34
32
33
31
37
52
70
83
90
90
88
88
88
88
88
88
84
81
82
83
87
86
83
82
75
73
74
75
79
76
73
71
67
68
65
60
58
55
53
51
50
50
48
47
45
45
44
43
41
45
42
36
37
34
38
43
56
73
87
91
91
90
86
86
86
86
86
86
83
82
82
83
80
79
75
73
74
75
76
76
79
74
70
68
67
65
65
59
58
56
55
53
51
50
50
49
48
46
44
43
42
43
41
40
37
40
46
64
79
89
97
97
100
94
94
94
94
94
94
92
92
93
93
92
91
86
82
81
81
81
81
82
82
81
75
73
73
70
72
66
61
60
59
60
57
55
54
52
50
47
44
43
42
41
39
38
37
37
34
37
34
35
46
64
83
93
96
95
94
90
90
90
90
90
90
88
88
89
90
88
82
79
77
76
78
78
78
77
76
75
75
73
68
65
64
63
64
59
57
55
53
51
49
49
47
46
44
42
40
41
39
40
41
36
34
35
39
58
73
86
95
94
96
91
91
91
91
91
91
87
85
85
85
84
80
78
76
75
75
76
76
78
76
78
73
69
67
63
65
60
58
58
56
55
54
52
50
48
45
44
43
43
40
39
38
37
37
36
35
38
37
44
63
79
92
100
99
96
96
96
96
96
96
95
93
93
93
96
95
92
88
85
82
80
82
83
82
79
77
76
76
75
70
66
65
61
63
58
55
52
50
49
47
47
46
43
40
39
38
37
36
35
38
34
30
33
46
64
78
88
92
91
91
91
91
91
91
93
90
86
86
87
88
85
82
79
78
78
79
79
79
79
77
80
75
71
69
68
66
63
60
58
58
55
54
52
51
50
48
46
44
43
42
40
41
53
67
83
97
104
105
105
105
105
105
105
102
99
98
98
103
101
97
94
90
88
87
87
88
90
88
86
84
81
79
76
74
72
71
69
67
70
66
62
62
60
62
58
54
53
50
49
47
45
44
43
44
56
74
91
98
105
107
101
101
101
101
101
101
99
100
102
108
103
99
95
92
91
91
87
87
84
83
82
81
78
75
73
70
66
62
62
61
62
60
57
54
55
53
53
49
46
45
42
39
37
37
37
35
32
30
29
31
47
62
75
85
87
86
86
86
86
86
86
84
86
84
84
86
85
86
81
78
77
78
77
77
77
75
72
71
66
64
64
61
60
60
59
55
55
53
55
51
49
48
45
48
46
42
40
37
36
34
34
39
54
71
80
84
86
84
84
84
84
84
84
82
85
83
83
85
84
83
77
74
71
71
72
76
71
69
66
63
61
60
57
55
53
50
49
48
47
45
47
45
42
39
39
37
38
33
30
29
26
26
26
24
23
20
20
19
22
35
52
63
71
73
71
71
71
71
71
71
70
68
71
70
71
70
66
67
61
58
58
59
60
59
56
55
53
51
48
44
42
41
39
40
39
37
36
34
38
34
31
30
27
29
30
25
23
22
22
20
19
19
17
20
28
43
58
68
72
76
73
73
73
73
73
73
69
67
67
69
68
64
60
60
57
61
60
59
58
57
56
54
52
50
47
46
45
44
43
43
42
42
39
37
38
37
39
34
33
33
31
29
27
27
26
26
25
24
31
44
60
72
77
78
77
74
74
74
74
74
74
73
76
75
73
73
70
70
66
62
62
62
62
60
59
57
55
54
51
49
46
44
42
45
42
40
39
37
38
37
35
32
33
32
33
29
27
25
23
22
21
20
19
24
39
59
68
73
74
73
73
73
73
73
73
71
66
65
66
66
67
61
58
57
57
60
59
57
57
56
55
53
50
48
46
45
41
42
40
41
40
42
38
37
36
34
37
35
31
31
37
50
63
72
76
77
74
74
74
74
74
74
72
69
68
69
69
66
62
60
61
63
68
67
64
63
62
60
60
55
51
49
48
47
46
46
45
45
42
41
41
40
39
41
42
49
62
75
88
92
91
91
91
91
91
91
88
87
85
90
87
86
85
80
76
76
74
74
75
76
75
73
70
70
68
69
66
64
62
60
61
59
57
56
55
57
54
51
50
48
46
43
42
44
53
67
81
88
92
92
89
89
89
89
89
89
93
91
91
91
92
91
85
79
78
78
78
78
77
76
74
71
69
66
63
62
62
60
59
58
57
57
56
54
51
50
49
48
50
46
43
41
40
36
35
39
47
62
78
86
89
88
84
84
84
84
84
84
83
84
82
82
83
79
79
74
74
74
75
78
76
73
69
66
65
62
60
60
59
57
55
53
52
52
52
55
51
48
46
44
50
57
67
79
87
89
86
86
86
86
86
86
84
81
81
82
82
79
77
72
72
71
73
74
75
73
75
71
67
64
64
63
64
59
55
56
54
50
48
48
47
46
41
38
39
48
66
87
99
108
107
108
105
105
104
105
105
102
102
92
92
92
92
92
92
83
81
81
81
80
80
78
77
72
67
64
62
61
61
61
56
52
51
47
51
43
39
37
33
36
35
32
30
28
28
25
23
21
21
20
18
17
18
23
34
63
78
88
91
89
89
89
89
89
89
91
90
90
93
94
93
90
82
76
72
70
69
69
69
70
69
65
61
58
56
53
52
48
42
41
42
41
44
40
37
33
29
26
24
21
21
21
23
23
24
22
17
14
20
36
51
65
71
75
67
67
67
67
67
67
64
62
61
67
64
60
55
53
51
50
49
50
49
50
50
49
48
45
44
49
45
41
41
40
44
42
39
37
36
36
34
28
23
22
19
18
17
20
33
51
72
81
85
83
83
83
83
83
83
80
81
76
73
72
71
68
65
58
54
54
53
53
52
51
49
48
45
43
40
37
31
28
24
22
21
24
24
27
21
21
28
39
62
72
82
84
80
80
80
80
80
80
74
69
65
64
62
62
56
51
48
45
48
48
49
48
48
43
46
41
34
31
29
31
29
24
24
23
21
19
19
20
22
33
51
66
73
76
75
77
72
72
72
72
72
72
67
67
68
69
66
60
58
56
54
58
55
54
52
51
46
44
41
39
37
35
33
34
31
32
34
34
32
28
28
26
27
30
42
60
75
83
82
79
79
79
79
79
79
76
74
71
69
70
69
64
61
60
60
61
63
63
67
60
57
57
52
54
48
44
42
40
39
37
37
36
36
34
32
33
43
60
74
90
91
89
89
89
89
89
89
86
81
84
82
79
74
70
72
71
68
67
67
67
66
64
60
58
55
52
49
46
45
42
47
44
42
41
39
40
38
33
31
35
48
78
89
94
96
93
93
93
93
93
93
89
87
86
87
87
86
84
78
75
75
75
78
77
73
72
67
71
65
59
57
53
52
50
48
47
45
42
42
41
39
36
34
34
31
30
31
29
32
28
26
25
32
56
76
92
100
101
97
97
97
97
97
97
93
91
91
92
93
90
86
80
78
77
80
78
77
77
75
76
71
64
61
60
59
57
52
49
47
45
41
39
37
36
37
34
31
30
31
29
28
28
26
23
23
21
39
55
76
92
96
101
93
93
93
93
93
93
84
80
78
79
78
76
73
69
68
70
70
70
71
69
72
67
62
59
56
59
51
48
47
46
40
39
38
38
36
35
33
30
29
28
26
24
22
22
21
19
24
32
51
74
90
100
102
102
102
102
102
102
96
89
87
84
83
83
82
77
73
71
71
70
71
72
76
73
69
66
64
61
61
54
51
50
47
48
43
41
40
37
37
33
30
29
28
26
23
22
21
20
22
40
59
80
93
96
100
91
91
91
91
91
91
84
80
75
78
74
69
66
63
62
62
63
64
63
62
60
56
54
53
47
50
44
41
38
36
39
36
34
31
30
25
25
25
32
44
65
83
92
96
93
93
93
93
93
93
87
84
81
81
81
78
79
75
71
69
71
73
75
70
66
62
59
56
53
54
50
47
46
45
45
44
44
45
44
41
38
39
35
39
44
62
84
102
115
111
111
111
111
111
111
103
101
98
96
96
97
95
92
88
85
85
85
85
86
89
84
81
76
72
74
68
63
61
60
60
57
54
50
48
46
45
43
41
40
38
35
33
30
35
53
78
93
101
104
103
101
101
101
101
101
101
99
94
92
94
92
87
83
80
78
78
78
79
79
77
74
70
68
65
64
63
60
60
54
52
51
51
53
46
44
42
39
38
35
33
32
32
41
60
81
97
102
105
104
104
104
104
104
104
98
95
95
94
98
91
87
84
81
86
83
81
80
77
75
74
71
68
64
61
60
59
57
57
54
57
53
52
49
47
49
45
42
40
41
39
36
34
31
30
28
31
45
64
85
98
104
103
99
99
99
99
99
99
98
98
101
101
98
94
92
87
89
84
84
83
83
81
78
76
72
69
66
63
61
59
57
56
52
50
49
50
47
48
43
40
38
36
38
33
30
28
26
22
21
19
23
37
58
78
90
97
96
96
96
96
96
96
92
93
85
85
85
82
84
79
73
74
75
79
78
76
74
69
66
62
59
56
52
50
49
48
47
46
46
49
45
43
42
40
40
41
34
32
34
41
57
75
89
96
94
94
94
94
94
94
90
85
84
83
82
78
74
72
71
73
76
80
75
74
74
71
72
65
61
59
57
53
49
48
46
45
43
43
42
42
39
36
33
32
33
45
63
86
95
100
104
101
103
98
98
98
98
98
98
96
95
95
92
90
85
83
84
84
84
85
83
81
80
82
76
69
67
64
65
62
58
56
56
56
57
52
50
48
46
44
42
41
38
35
34
40
61
79
97
110
111
106
106
106
106
106
106
101
101
103
104
101
100
98
92
90
89
87
87
87
86
85
83
80
76
74
71
68
67
67
65
67
61
57
56
53
56
51
46
45
42
40
39
36
33
32
32
30
28
25
25
30
48
67
87
98
98
100
95
95
95
95
95
95
91
88
90
91
92
87
84
81
80
81
81
81
81
79
76
73
72
67
65
68
64
60
59
58
58
58
53
51
50
47
48
43
40
37
35
33
31
32
30
29
26
25
26
39
60
83
95
98
98
98
93
93
93
93
93
93
95
91
92
94
90
86
82
81
79
78
78
78
78
76
72
70
67
64
62
61
57
60
56
52
51
51
51
47
43
40
38
37
36
33
32
31
28
26
25
23
24
35
57
75
86
94
93
93
93
93
93
93
93
90
85
82
83
82
79
75
71
70
70
71
70
70
69
69
66
63
60
58
54
55
55
50
47
48
46
48
44
41
40
39
41
37
34
31
29
27
26
26
26
34
54
74
87
93
96
93
93
93
93
93
93
96
90
88
87
87
90
85
81
78
78
76
76
76
75
74
73
70
67
64
61
60
58
56
55
53
50
54
50
47
46
44
44
44
40
37
34
33
32
29
27
30
40
59
78
90
96
98
98
95
95
95
95
95
95
91
91
92
95
93
86
83
81
79
83
80
78
78
76
73
69
67
64
61
59
57
56
54
53
53
53
48
45
46
43
45
39
36
35
32
32
30
31
41
57
75
84
89
89
85
85
85
85
85
85
82
78
77
76
75
70
73
69
68
70
72
75
73
68
65
65
59
55
53
52
49
49
46
47
45
45
43
39
37
35
36
44
62
77
89
92
95
93
94
94
94
94
94
94
87
85
85
84
80
77
74
72
72
72
72
72
69
66
65
65
62
60
59
56
58
54
52
50
47
49
45
41
38
40
50
66
82
91
97
96
93
93
93
93
93
93
91
90
91
93
95
86
82
79
77
81
80
79
78
77
75
71
66
62
60
57
55
54
52
52
49
47
45
43
43
52
66
79
90
96
97
97
97
97
97
97
97
97
92
92
95
93
90
86
81
78
78
76
76
78
75
73
69
67
65
63
61
59
59
55
52
51
49
51
45
43
41
39
37
35
32
31
27
27
24
22
21
20
20
23
20
16
17
24
52
64
78
86
88
91
86
86
86
86
86
86
83
82
84
86
85
81
76
72
68
69
69
69
69
67
71
65
61
58
54
56
51
49
47
46
44
38
37
36
33
31
31
30
27
27
25
23
21
19
18
19
20
20
16
14
15
14
18
13
17
33
48
67
74
77
76
74
74
74
74
74
74
71
70
69
70
71
67
63
60
59
60
59
62
60
59
57
54
56
52
48
46
42
40
39
37
36
34
33
32
31
30
28
28
30
27
25
23
21
24
22
20
18
17
18
17
14
15
20
31
52
65
73
76
73
73
73
73
73
73
70
67
66
66
65
67
64
60
57
56
55
57
56
54
54
53
50
48
45
41
40
40
39
37
36
35
33
33
30
30
32
31
32
27
27
27
26
29
25
21
21
19
22
34
51
69
77
79
76
76
76
76
76
76
73
69
67
64
64
62
61
60
58
61
59
58
58
59
61
59
55
52
49
46
43
42
41
40
38
38
38
37
37
36
39
36
33
32
30
33
32
29
27
27
29
42
58
72
81
85
84
80
80
80
80
80
80
77
75
74
73
73
71
68
66
68
67
65
65
66
65
65
61
58
57
53
51
48
46
45
44
42
41
40
39
39
37
36
35
34
36
35
36
33
33
45
59
81
87
89
87
87
87
87
87
87
83
78
76
74
73
71
69
66
64
65
65
67
69
70
68
67
65
66
62
58
55
53
54
54
52
49
48
47
46
45
42
42
41
40
43
56
71
83
96
98
98
98
98
98
98
95
92
89
88
88
86
85
83
81
82
78
78
78
78
78
76
75
72
71
68
67
65
62
62
62
63
59
58
58
55
57
54
52
52
51
55
68
84
95
103
104
104
102
100
100
100
100
100
100
99
99
99
98
96
94
91
94
91
90
90
90
91
87
84
81
79
76
74
72
69
67
66
66
64
64
62
60
61
60
57
56
54
55
55
60
74
93
102
109
103
103
103
103
103
103
101
99
97
96
96
97
95
92
89
89
88
89
90
92
90
88
86
83
82
81
77
75
73
70
73
70
68
67
64
62
61
59
58
56
55
53
52
52
52
50
52
48
49
58
73
94
101
103
103
102
102
102
102
102
102
99
98
98
99
100
98
95
92
91
90
90
90
89
88
88
86
86
84
80
77
75
75
73
70
68
66
64
63
61
60
58
56
53
51
49
47
47
47
46
45
41
41
40
41
37
34
35
39
57
70
82
87
88
86
86
86
86
86
86
83
82
82
83
83
82
80
77
75
74
76
75
74
74
72
74
69
64
63
60
60
57
54
53
52
50
48
47
47
46
44
42
40
39
40
39
41
36
35
34
32
33
30
28
33
46
61
71
75
76
74
74
74
74
74
74
70
67
64
63
62
60
56
55
55
56
58
61
62
58
55
55
52
51
48
46
43
42
39
38
37
34
34
35
33
33
32
31
32
32
28
26
26
24
29
33
46
60
71
80
79
79
79
79
79
79
74
70
68
66
66
65
64
62
61
60
60
60
60
61
63
59
57
55
53
54
51
47
45
45
44
41
40
40
39
39
37
36
36
35
33
32
32
31
30
31
41
55
68
76
82
83
82
82
82
82
82
82
76
75
75
75
75
73
70
66
64
63
62
61
61
60
60
59
57
56
53
53
51
47
46
45
42
43
40
38
38
36
35
35
35
33
31
29
28
27
29
42
57
73
77
78
77
73
73
73
73
73
73
74
70
69
70
68
69
65
63
61
61
62
62
62
62
60
58
55
53
52
52
50
52
48
46
46
45
47
46
43
43
43
41
41
47
60
71
79
83
83
82
80
80
80
80
80
80
78
78
77
77
76
75
74
72
71
71
71
70
72
69
64
64
62
58
56
55
54
52
51
51
50
49
47
46
44
44
43
44
44
45
40
37
39
44
60
69
79
84
85
82
82
82
82
82
82
80
80
80
82
83
81
79
74
74
72
75
73
72
74
71
73
66
63
60
57
58
54
51
47
44
42
39
38
34
33
30
28
26
24
23
19
23
19
17
18
33
60
84
95
98
98
90
90
90
90
90
90
85
83
84
83
81
77
72
70
67
68
70
70
69
68
68
66
66
58
53
52
48
51
45
42
40
39
37
34
34
33
30
27
26
26
25
23
22
24
36
57
84
99
109
101
101
101
101
101
101
96
93
91
98
95
95
91
86
79
77
74
74
76
75
75
70
67
64
61
64
57
53
50
46
51
47
42
40
41
40
42
36
31
28
25
21
18
17
16
16
14
14
15
13
13
20
29
48
65
82
87
88
88
88
88
88
88
82
76
77
78
77
76
75
69
65
62
62
63
64
65
64
61
58
54
55
51
51
45
43
43
40
44
40
38
35
33
32
32
29
26
25
22
21
20
25
42
60
78
84
82
81
74
74
74
74
74
74
75
72
68
64
60
57
56
53
54
55
56
54
54
53
50
45
43
42
40
38
35
40
38
35
34
34
33
34
40
55
72
81
88
84
79
76
74
72
73
71
66
60
55
55
56
59
60
62
63
58
54
51
45
47
41
37
36
34
31
30
28
27
27
29
40
59
76
86
87
85
85
85
85
85
85
81
79
78
79
84
80
75
70
66
68
67
65
64
63
60
57
55
52
48
46
41
37
37
36
35
39
34
33
32
29
32
30
25
22
22
22
23
18
14
13
13
18
32
58
75
84
87
84
84
84
84
84
84
80
76
74
79
81
78
75
73
69
69
64
62
64
64
69
64
60
57
55
51
48
44
43
41
41
39
39
38
40
38
39
34
31
31
29
32
25
22
22
21
17
16
15
15
25
52
70
82
86
85
85
85
85
85
85
81
76
74
73
75
78
79
72
65
61
60
63
63
60
60
58
55
52
50
46
42
40
39
38
35
34
32
34
32
29
28
25
28
24
23
21
22
19
21
18
15
14
11
10
15
24
44
61
73
78
77
77
77
77
77
77
73
69
67
70
69
68
68
63
62
58
57
57
57
60
57
54
52
48
44
42
39
37
36
35
33
31
30
31
30
33
28
26
26
24
25
24
18
17
16
14
14
15
15
19
32
49
62
70
71
69
69
69
69
69
69
64
60
58
57
56
58
56
53
50
50
51
53
52
51
49
47
43
42
40
39
36
35
34
33
32
31
34
34
31
29
30
30
31
28
25
25
23
32
42
55
69
75
75
72
72
72
72
72
72
69
65
62
60
60
58
57
55
54
56
54
55
56
55
56
51
47
44
42
44
40
37
36
35
33
32
32
32
32
30
30
30
28
28
28
30
27
32
45
61
76
84
80
80
80
80
80
80
77
74
70
66
66
65
64
63
59
57
57
57
58
58
58
57
54
52
52
50
47
44
44
42
45
40
37
37
36
34
34
33
32
30
28
26
27
31
44
59
78
82
81
81
81
81
81
81
78
73
72
69
67
67
65
65
61
58
60
63
63
64
62
60
56
54
53
52
52
51
50
53
48
46
46
46
48
46
43
40
40
39
39
38
37
41
52
72
83
91
91
88
88
88
88
88
88
84
81
79
79
79
80
78
74
72
73
72
74
72
71
70
66
63
61
60
59
58
56
56
56
55
54
53
52
51
51
52
51
52
49
47
46
44
49
55
70
85
94
96
95
95
95
95
95
95
90
88
85
84
83
84
81
79
78
80
77
76
76
77
79
75
69
69
66
67
65
62
60
58
56
54
54
55
54
53
51
50
48
47
46
50
48
44
44
43
43
45
48
61
80
91
94
91
91
91
91
91
91
88
85
82
82
82
82
80
76
73
71
71
70
70
71
72
67
64
62
59
60
56
53
51
50
48
48
47
46
45
45
43
40
39
38
37
37
35
35
35
33
36
32
30
30
38
61
71
80
80
78
78
78
78
78
78
73
68
65
64
64
62
59
57
56
55
56
62
60
59
57
56
55
51
48
47
46
44
44
42
40
38
37
36
36
37
36
37
34
32
31
33
39
57
70
77
78
78
78
78
78
78
78
73
70
64
63
64
60
57
55
54
52
52
53
55
54
53
51
47
47
45
43
43
42
43
40
38
37
37
39
37
34
34
32
31
31
28
27
30
40
56
69
74
72
72
72
72
72
72
72
70
66
64
63
62
63
59
57
54
53
56
57
55
53
50
47
43
40
40
41
38
36
35
33
33
33
36
34
32
31
30
34
31
28
28
36
46
63
69
72
71
71
71
71
71
71
65
62
60
61
60
60
57
56
54
54
56
56
60
57
56
56
53
54
49
48
45
44
41
40
39
39
39
36
37
36
36
35
34
32
32
36
49
64
79
80
81
79
79
79
79
79
79
75
76
72
